# OpenSignals Text File Format
# {"00:07:80:3B:46:6F": {"sensor": ["EMG", "EMG", "EMG", "EMG"], "device name": "00:07:80:3B:46:6F", "column": ["nSeq", "DI", "Direito Multi", "Esquerdo Multi", "Direito ES", "Esquerdo ES"], "sync interval": 2, "time": "12:44:35.687", "comments": "", "device connection": "BTH00:07:80:3B:46:6F", "channels": [1, 2, 3, 4], "date": "2016-9-26", "mode": 0, "digital IO": [0, 1], "firmware version": 514, "device": "bioplux", "position": 0, "sampling rate": 1000, "label": ["Direito Multi", "Esquerdo Multi", "Direito ES", "Esquerdo ES"], "resolution": [12, 12, 12, 12], "special": [{}, {}, {}, {}]}}
# EndOfHeader
0	0	1994	1949	1982	2050	
1	0	2026	2049	2017	2000	
2	0	2019	2121	2016	1958	
3	0	2040	2120	2022	1987	
4	0	2041	2050	2020	2004	
5	0	2037	2033	2052	2008	
6	0	2032	1968	2049	2106	
7	0	2051	1961	2065	2098	
8	0	2083	2025	2054	2056	
9	0	2095	2104	2076	1995	
10	0	2061	2080	2054	2060	
11	0	2016	2054	2012	2159	
12	0	1999	2072	1990	2162	
13	0	2013	2079	2007	2131	
14	0	2038	2098	2012	2088	
15	0	2050	2087	2009	2034	
16	0	2028	2041	2029	2045	
17	0	2024	2005	2060	2017	
18	0	2068	2033	2106	1998	
19	0	2142	2026	2113	2031	
20	0	2155	1987	2144	2069	
21	0	2107	1994	2122	2053	
22	0	2040	2043	2070	2057	
23	0	1989	2106	2032	2077	
24	0	2014	2125	2056	2072	
25	0	2041	2096	2059	2043	
26	0	2083	2105	2080	2024	
27	0	2083	2067	2084	2042	
28	0	2073	2059	2064	2031	
29	0	2040	2057	2059	1976	
30	0	2025	2047	2051	1957	
31	0	2056	2037	2057	1986	
32	0	2055	2021	2028	2033	
33	0	2029	2018	2004	2054	
34	0	2012	2000	1990	2060	
35	0	2003	1992	1973	2076	
36	0	2013	1992	2005	2068	
37	0	2031	2005	1999	2058	
38	0	2059	2049	2010	2049	
39	0	2072	2086	2068	2038	
40	0	2065	2124	2086	2024	
41	0	2078	2113	2103	2023	
42	0	2118	2097	2102	2031	
43	0	2146	2074	2079	2073	
44	0	2101	2025	2083	2107	
45	0	2036	2003	2060	2096	
46	0	1987	2016	2038	2050	
47	0	1925	2041	2017	2042	
48	0	1992	2047	2033	2073	
49	0	2036	2040	2089	2082	
50	0	2089	2024	2112	2060	
51	0	2090	2020	2085	2035	
52	0	2039	2021	2084	2025	
53	0	2043	2041	2089	2054	
54	0	2054	2056	2057	2015	
55	0	2022	2029	2028	2064	
56	0	2006	1987	1998	2065	
57	0	2037	2096	1999	1962	
58	0	2068	2215	2004	1969	
59	0	2088	2163	2020	2027	
60	0	2109	2121	1993	1989	
61	0	2099	2077	1946	1972	
62	0	2108	2041	2003	2004	
63	0	2052	1985	2016	2025	
64	0	2050	2013	2041	2025	
65	0	2029	2033	2061	2109	
66	0	2059	2042	2084	2151	
67	0	2072	2051	2090	2140	
68	0	2138	2043	2092	2139	
69	0	2117	2075	2079	2134	
70	0	2053	2082	2072	2153	
71	0	2003	2019	2089	2152	
72	0	1947	1971	2064	2149	
73	0	1880	1939	2046	2113	
74	0	1944	1942	2045	2073	
75	0	2002	1952	2050	1980	
76	0	2050	1997	2050	1934	
77	0	2086	2046	2031	1928	
78	0	2096	2110	2050	1911	
79	0	2099	2173	2034	1966	
80	0	2015	2145	1982	1979	
81	0	1923	2100	1951	1989	
82	0	1935	2092	1982	1944	
83	0	1931	2106	1997	1916	
84	0	1930	2042	2002	1991	
85	0	1934	2005	1994	2084	
86	0	1935	2034	2020	2104	
87	0	2030	2062	2057	2034	
88	0	2167	2050	2102	2070	
89	0	2298	2091	2149	2123	
90	0	2346	2097	2192	2093	
91	0	2311	2094	2248	2063	
92	0	2189	2057	2159	2045	
93	0	2115	2029	2097	2088	
94	0	2094	2046	2052	2148	
95	0	2050	2048	1994	2122	
96	0	1999	2052	1991	2075	
97	0	1981	2030	2037	2046	
98	0	2001	2034	2056	2034	
99	0	2044	2058	2091	2013	
100	0	2071	2063	2102	2031	
101	0	2089	2061	2091	2032	
102	0	2082	2016	2048	2079	
103	0	2011	1978	1987	2109	
104	0	1984	1961	1963	2076	
105	0	1998	1989	1969	2038	
106	0	2003	2006	2020	2040	
107	0	2020	2004	2029	2068	
108	0	2042	1988	2017	2050	
109	0	2052	1990	2030	2007	
110	0	2045	1995	2033	2010	
111	0	2020	2024	2025	2057	
112	0	2008	2044	2021	2113	
113	0	2020	2098	2016	2079	
114	0	2053	2124	2022	2022	
115	0	2086	2157	2068	2044	
116	0	2085	2184	2113	2037	
117	0	2044	2127	2113	2032	
118	0	2039	2089	2081	2073	
119	0	2098	2058	2090	2063	
120	0	2088	2012	2048	2017	
121	0	2043	1971	1991	1992	
122	0	1973	1942	1952	2054	
123	0	1934	1992	1958	2101	
124	0	1871	2044	1977	2097	
125	0	1964	2096	2050	2023	
126	0	2052	2101	2099	1980	
127	0	2063	2082	2130	1971	
128	0	2089	2097	2140	1999	
129	0	2110	2129	2067	2047	
130	0	2146	2121	2022	2023	
131	0	2118	2121	2100	2059	
132	0	2139	2075	2164	2122	
133	0	2107	2017	2170	2133	
134	0	2048	1973	2088	2129	
135	0	2031	1909	2015	2154	
136	0	2052	1940	1962	2054	
137	0	2093	1993	1986	1985	
138	0	2107	2051	2042	1959	
139	0	2086	2051	2049	1990	
140	0	2072	2042	2046	2018	
141	0	2040	2031	2015	2066	
142	0	2021	2013	2016	2116	
143	0	2000	2003	2027	2121	
144	0	1986	2028	2011	2059	
145	0	2041	2075	2020	1989	
146	0	2047	2096	2011	1955	
147	0	2023	2150	1996	1951	
148	0	1999	2148	2008	1941	
149	0	2020	2103	2051	2045	
150	0	2063	2042	2060	2138	
151	0	2060	2057	2052	2080	
152	0	2056	2088	2037	2016	
153	0	2098	2044	2062	2030	
154	0	2082	1989	2031	2052	
155	0	2059	1977	2051	2043	
156	0	2078	2018	2041	2047	
157	0	2067	2076	2029	2093	
158	0	2008	2051	2021	2125	
159	0	1939	2076	2001	2069	
160	0	1983	2115	2021	2016	
161	0	2048	2113	2106	1977	
162	0	2073	2067	2128	2011	
163	0	2013	2023	2038	2029	
164	0	1996	2018	1992	2028	
165	0	2058	2027	1995	2049	
166	0	2066	2020	1995	2072	
167	0	2065	2026	2022	2056	
168	0	1993	1989	2053	2058	
169	0	1925	2048	2043	2058	
170	0	1961	2103	2074	2070	
171	0	2089	2092	2141	2027	
172	0	2147	2060	2169	2025	
173	0	2156	2053	2200	2019	
174	0	2149	2049	2146	2057	
175	0	2192	2057	2059	2083	
176	0	2112	2047	2049	2095	
177	0	2096	2060	2121	2076	
178	0	2091	2031	2106	2040	
179	0	2029	1994	2063	2040	
180	0	2050	2011	2082	2018	
181	0	2060	2045	2079	2005	
182	0	2024	2013	2026	2109	
183	0	2012	2013	1989	2052	
184	0	2010	2009	1994	2005	
185	0	2001	2008	1983	2111	
186	0	2014	2079	1994	2141	
187	0	2022	2066	1995	2186	
188	0	2018	2045	2002	2118	
189	0	1997	2003	1987	2051	
190	0	1972	2003	1991	1996	
191	0	1989	2035	2006	1935	
192	0	2022	2066	2021	1918	
193	0	2083	2091	2078	2003	
194	0	2131	2130	2089	1992	
195	0	2093	2139	2078	2058	
196	0	2045	2096	2054	2111	
197	0	2040	2068	2061	2056	
198	0	2065	2042	2091	2044	
199	0	2071	2057	2073	2033	
200	0	2058	2029	2061	2041	
201	0	2070	2017	2017	2085	
202	0	2102	2040	1983	2069	
203	0	2092	2095	2006	2022	
204	0	2080	2103	2049	2011	
205	0	2070	2081	2038	2005	
206	0	2000	2039	1994	2022	
207	0	2019	2035	2056	2067	
208	0	2053	2035	2080	2062	
209	0	2003	1998	2050	2026	
210	0	1955	1997	2023	2032	
211	0	2009	2027	2045	2066	
212	0	2067	2064	2038	2076	
213	0	2067	2007	2050	2112	
214	0	2113	1939	2086	2134	
215	0	2157	1949	2114	2069	
216	0	2052	1993	1997	1962	
217	0	1912	2096	1938	1994	
218	0	1844	2140	1972	2033	
219	0	1896	2132	2015	2014	
220	0	2032	2090	2087	2014	
221	0	2159	2099	2170	2075	
222	0	2169	2108	2150	2080	
223	0	2135	2157	2124	2060	
224	0	2132	2165	2142	2032	
225	0	2136	2074	2156	2015	
226	0	2096	2018	2147	2025	
227	0	2053	2013	2092	2023	
228	0	2035	2000	2027	2008	
229	0	2034	2018	2029	2025	
230	0	2041	1990	1990	2055	
231	0	2058	1941	1985	2034	
232	0	2062	1967	1995	2051	
233	0	2081	2008	2016	2048	
234	0	2049	2020	1995	2134	
235	0	2041	2091	1988	2115	
236	0	2041	2158	2023	2061	
237	0	2024	2214	2004	2072	
238	0	2027	2099	2019	2094	
239	0	2017	1975	2001	2130	
240	0	1978	1947	1995	2204	
241	0	1991	1985	1999	2095	
242	0	1996	2028	2032	1987	
243	0	2015	2086	2080	1966	
244	0	2122	2101	2168	2002	
245	0	2111	2076	2092	2017	
246	0	2085	2084	2069	2021	
247	0	2053	2063	2043	2027	
248	0	2052	2031	2048	2032	
249	0	2087	2031	2068	2030	
250	0	2086	2041	2096	2012	
251	0	2080	2041	2148	2016	
252	0	2066	2053	2112	2043	
253	0	2049	2091	2040	2048	
254	0	1995	2081	2005	2039	
255	0	1985	2070	2000	2046	
256	0	1984	2041	2034	2026	
257	0	2004	2031	2076	2034	
258	0	2072	1979	2067	2067	
259	0	2071	1931	2033	2087	
260	0	2017	1917	1973	2066	
261	0	2018	1958	1972	2042	
262	0	2048	2009	1978	2045	
263	0	2058	2049	1989	2024	
264	0	2096	2098	2066	2020	
265	0	2105	2096	2080	2049	
266	0	2079	2104	2051	2072	
267	0	2062	2116	2041	2067	
268	0	2056	2105	2017	2056	
269	0	2043	2086	2031	2058	
270	0	2062	2053	2044	2047	
271	0	2039	2013	2062	2058	
272	0	2021	2014	2073	2047	
273	0	2038	2028	2102	2026	
274	0	2037	1974	2101	2077	
275	0	2038	1957	2139	2061	
276	0	2065	1978	2125	2028	
277	0	2120	2014	2115	2011	
278	0	2124	2060	2053	2061	
279	0	2135	2116	2004	2060	
280	0	2131	2211	1950	1978	
281	0	2013	2217	1957	1972	
282	0	1886	2164	1964	2014	
283	0	1924	2140	2005	2029	
284	0	1989	2077	2029	2049	
285	0	2025	2041	2041	2064	
286	0	2054	2042	2033	2053	
287	0	2066	2005	2060	2031	
288	0	2096	1988	2102	2051	
289	0	2098	1972	2146	2086	
290	0	2063	1961	2096	2124	
291	0	2038	1961	2040	2152	
292	0	2012	2001	1986	2154	
293	0	2030	1989	1995	2109	
294	0	2047	1932	2022	2118	
295	0	2066	1932	2040	2128	
296	0	2060	2010	2024	2030	
297	0	2032	2093	2026	2029	
298	0	2001	2182	2067	2014	
299	0	2065	2216	2146	1948	
300	0	2141	2147	2176	1875	
301	0	2120	2047	2141	1888	
302	0	2087	2022	2130	1902	
303	0	2079	2034	2070	1920	
304	0	2033	2061	2039	2043	
305	0	2009	2099	2037	2124	
306	0	2033	2136	2000	2205	
307	0	2096	2199	2001	2197	
308	0	2145	2134	2029	2091	
309	0	2080	2116	2017	2031	
310	0	2044	2054	1992	2051	
311	0	1936	1962	1979	2067	
312	0	1895	1933	1999	2064	
313	0	1966	1978	2043	2004	
314	0	2018	1936	2082	2019	
315	0	2038	1904	2068	2067	
316	0	2026	1946	2028	2069	
317	0	2040	2028	1988	2055	
318	0	2011	2071	1999	2090	
319	0	2034	2120	2071	2110	
320	0	2102	2061	2127	2126	
321	0	2084	2051	2116	2021	
322	0	2119	2081	2080	1974	
323	0	2148	2030	2045	2016	
324	0	2110	2048	2068	1992	
325	0	2149	2097	2115	2004	
326	0	2113	2158	2062	1969	
327	0	2040	2128	2044	2004	
328	0	2022	2069	2008	2019	
329	0	2011	2050	1991	2026	
330	0	1995	2033	2000	2077	
331	0	1950	1978	1978	2086	
332	0	1950	1939	1992	2048	
333	0	2007	1977	1992	2032	
334	0	2028	1970	2006	2026	
335	0	1998	1983	1994	2028	
336	0	2005	1999	2004	2038	
337	0	2013	2008	2051	2075	
338	0	1994	1989	2069	2151	
339	0	2126	2131	2087	2153	
340	0	2201	2222	2096	2017	
341	0	2220	2200	2151	2016	
342	0	2245	2138	2168	2054	
343	0	2191	2140	2151	2039	
344	0	2063	2109	2115	1995	
345	0	1926	2028	2050	2094	
346	0	1925	1963	1952	2145	
347	0	1924	1979	1922	2067	
348	0	1930	2037	2000	2011	
349	0	2028	2065	2089	2029	
350	0	2061	2039	2096	2054	
351	0	2056	1970	2122	2061	
352	0	2057	1977	2096	2045	
353	0	2070	2002	2082	2001	
354	0	2084	1992	2062	2029	
355	0	2045	1970	2053	2052	
356	0	2085	1975	2104	2068	
357	0	2122	2017	2091	2041	
358	0	2088	2075	2069	2002	
359	0	2049	2143	1989	2054	
360	0	2007	2168	1963	2139	
361	0	2014	2116	1992	2121	
362	0	2016	2046	2016	2054	
363	0	2041	1986	2051	2044	
364	0	2050	1982	2023	2066	
365	0	2024	2018	2002	2064	
366	0	2009	2077	2008	2050	
367	0	2062	2080	2019	2031	
368	0	2064	2058	2043	2064	
369	0	2056	2067	2058	2041	
370	0	2049	2041	2041	2054	
371	0	2042	2000	2033	2028	
372	0	2057	1993	2075	2007	
373	0	2078	2022	2071	2003	
374	0	2070	2074	2020	1987	
375	0	2042	2094	1994	1951	
376	0	2031	2029	2010	1995	
377	0	2007	2050	2011	2123	
378	0	2020	2212	2015	2128	
379	0	1996	2180	2030	2043	
380	0	2014	2069	2110	1965	
381	0	2082	1956	2174	1990	
382	0	2099	1967	2142	1997	
383	0	2105	2033	2106	2058	
384	0	2107	2070	2098	2083	
385	0	2091	2037	2070	2089	
386	0	2053	2021	2044	2083	
387	0	2035	2030	2022	2084	
388	0	2045	2035	2042	2051	
389	0	2063	2025	2038	2046	
390	0	2018	1978	2003	2082	
391	0	1972	1953	2000	2099	
392	0	1975	1962	2005	2075	
393	0	1998	2019	2002	1989	
394	0	2024	2063	2020	1945	
395	0	2061	2120	2065	2059	
396	0	2002	2138	2049	2131	
397	0	1941	2149	2026	2070	
398	0	1946	2178	1993	1989	
399	0	2044	2127	2040	1961	
400	0	2155	2098	2067	1982	
401	0	2228	2083	2060	1991	
402	0	2240	2105	2080	2000	
403	0	2121	2090	2056	2073	
404	0	2063	2035	2069	2110	
405	0	2160	2049	2105	2105	
406	0	2164	2073	2120	2127	
407	0	2088	2052	2085	2127	
408	0	2029	2005	2106	2093	
409	0	2060	1992	2104	2097	
410	0	2072	1991	2049	2106	
411	0	2070	1988	2018	2086	
412	0	2017	2012	2023	2079	
413	0	1899	1994	1966	2065	
414	0	1908	1972	1951	2038	
415	0	1931	2003	1964	1992	
416	0	1884	2004	1950	1941	
417	0	1937	2013	1984	1906	
418	0	2055	2009	1991	1999	
419	0	2109	2024	2064	1992	
420	0	2062	2059	2116	1948	
421	0	2070	2136	2219	2002	
422	0	2018	2081	2295	2185	
423	0	1988	2002	2236	2224	
424	0	2172	2061	2198	2083	
425	0	2258	2116	2098	2044	
426	0	2263	2141	2054	2065	
427	0	2181	2140	2030	2031	
428	0	2067	2124	1942	1992	
429	0	1924	2090	1855	2010	
430	0	1862	2016	1879	2041	
431	0	1917	1988	1954	2036	
432	0	1984	1971	1956	2084	
433	0	2052	1990	1965	2033	
434	0	2116	2000	2004	2018	
435	0	2112	1982	2051	2055	
436	0	2076	1964	2054	2059	
437	0	1992	1945	2025	2063	
438	0	1908	1956	2020	2149	
439	0	1903	1993	2032	2088	
440	0	1936	2112	2036	1990	
441	0	1977	2156	2051	1972	
442	0	2093	2220	2054	2032	
443	0	2145	2257	2061	2025	
444	0	2208	2202	2086	1987	
445	0	2136	2183	2058	2017	
446	0	2092	2143	2083	2017	
447	0	2082	2048	2098	2056	
448	0	2082	1990	2097	2105	
449	0	2109	2001	2075	2131	
450	0	2152	2057	2069	2071	
451	0	2134	2053	2031	1999	
452	0	2011	2012	1991	2025	
453	0	1931	1945	2100	2087	
454	0	1981	1927	2190	2152	
455	0	1990	1987	2133	2088	
456	0	1985	2029	2075	2054	
457	0	2048	2039	2061	2022	
458	0	2123	2061	2075	2012	
459	0	2176	2064	2093	2035	
460	0	2173	2042	2146	2024	
461	0	2130	2014	2082	2010	
462	0	2068	2018	1992	2065	
463	0	1943	1995	1957	2108	
464	0	1964	2010	1976	2100	
465	0	2001	2034	1986	2097	
466	0	2010	2031	1992	2105	
467	0	2014	2016	2030	2134	
468	0	2034	1982	2038	2102	
469	0	2026	1939	1986	2095	
470	0	2069	2030	1998	2018	
471	0	1973	2077	1918	2001	
472	0	1895	2056	1904	2022	
473	0	1917	2074	1922	2023	
474	0	1931	2132	1969	1996	
475	0	1976	2087	2019	2013	
476	0	2049	2100	2065	1988	
477	0	2119	2088	2128	1974	
478	0	2111	2024	2143	1964	
479	0	2119	2055	2183	1950	
480	0	2164	2088	2151	1963	
481	0	2176	2076	2182	2028	
482	0	2199	2084	2273	2038	
483	0	2166	2118	2198	2009	
484	0	2092	2176	2095	2060	
485	0	2081	2168	2076	2158	
486	0	2119	2145	2092	2206	
487	0	2093	2094	2046	2123	
488	0	2047	2077	1993	2028	
489	0	2043	2047	1997	1948	
490	0	2033	2003	1995	1920	
491	0	2014	2030	1983	1974	
492	0	1994	2066	1975	2053	
493	0	1972	1999	1962	2096	
494	0	1956	1933	1938	2083	
495	0	1972	1891	1959	2088	
496	0	1996	1880	1966	2122	
497	0	1971	1873	1973	2149	
498	0	1971	1969	2007	2111	
499	0	1971	1946	2021	2136	
500	0	1949	1949	2030	2070	
501	0	1919	2069	2049	1974	
502	0	2031	2211	2123	2013	
503	0	2054	2199	2093	2041	
504	0	2093	2166	2115	1932	
505	0	2213	2182	2118	1939	
506	0	2237	2062	2162	2070	
507	0	2286	2074	2182	2060	
508	0	2310	2173	2134	2010	
509	0	2212	2174	2051	2025	
510	0	2092	2105	2008	2034	
511	0	1965	2075	1974	2053	
512	0	1969	2002	1970	2129	
513	0	1922	1940	1995	2122	
514	0	1901	1922	2004	2065	
515	0	2004	1937	2058	2068	
516	0	1971	1952	2086	2104	
517	0	1906	2005	2074	2102	
518	0	2036	2007	2052	2094	
519	0	2124	2012	2023	2050	
520	0	2075	2023	2022	2038	
521	0	2113	2045	2101	2075	
522	0	2106	1992	2142	2015	
523	0	2093	2048	2069	2001	
524	0	2094	2153	2029	2038	
525	0	2063	2150	2028	1886	
526	0	2033	2052	2056	1885	
527	0	2020	2014	2051	2032	
528	0	2056	2073	2056	2123	
529	0	2071	2198	2055	2104	
530	0	2077	2166	2034	2051	
531	0	2091	2142	2018	2036	
532	0	2074	2090	1981	2040	
533	0	2086	2053	1978	2046	
534	0	2002	2039	1971	2055	
535	0	1886	1988	2010	2063	
536	0	1963	1948	2054	2080	
537	0	2035	1967	2061	2088	
538	0	2083	2023	2076	2094	
539	0	2066	1968	2054	2108	
540	0	2025	1978	2008	2056	
541	0	1992	2106	1979	2025	
542	0	2019	2084	2039	2091	
543	0	2067	2081	2108	2062	
544	0	2010	2107	2086	2032	
545	0	1904	2086	2084	2008	
546	0	2043	2075	2124	2032	
547	0	2171	2055	2121	2018	
548	0	2182	2066	2091	1989	
549	0	2121	2050	2115	1979	
550	0	2074	2043	2083	2030	
551	0	2052	2045	2054	2033	
552	0	2036	2004	2013	2033	
553	0	2032	1996	2016	2011	
554	0	2032	1987	2018	2031	
555	0	2052	1976	2036	2077	
556	0	2091	2021	2031	2080	
557	0	2047	2057	2041	2040	
558	0	2073	2090	2025	2036	
559	0	2060	2127	1996	2049	
560	0	2057	2072	1988	2008	
561	0	2072	2037	2009	2012	
562	0	2042	2033	2000	2118	
563	0	1972	1977	2017	2200	
564	0	1979	1957	2034	2194	
565	0	1903	1972	2025	2127	
566	0	1896	1989	2055	2113	
567	0	2014	2058	2089	2068	
568	0	2083	2119	2027	2033	
569	0	2127	2057	2025	2018	
570	0	2107	2046	2060	1980	
571	0	2060	2036	2055	2025	
572	0	1986	2068	2035	2020	
573	0	2007	2131	2082	2006	
574	0	2108	2169	2138	2010	
575	0	2162	2150	2158	2018	
576	0	2143	2102	2130	1990	
577	0	2202	2126	2163	1957	
578	0	2184	2138	2112	1997	
579	0	2087	2071	2055	2023	
580	0	2050	2016	2022	2015	
581	0	2033	2029	1991	2024	
582	0	2025	2025	1964	2049	
583	0	2004	2000	1959	2084	
584	0	2025	1986	1987	2082	
585	0	2044	1989	1959	2078	
586	0	2025	1998	1960	2041	
587	0	1980	1995	1975	2030	
588	0	1882	1957	1985	2050	
589	0	1920	1995	2016	2025	
590	0	1967	2002	2063	2075	
591	0	1995	2023	2061	2073	
592	0	2043	2077	2099	2077	
593	0	2129	2061	2161	2078	
594	0	2137	2028	2132	2066	
595	0	2045	2012	2096	2057	
596	0	1972	2031	2125	2070	
597	0	2037	2051	2168	2037	
598	0	2115	2053	2083	2048	
599	0	2123	2174	2055	2107	
600	0	2136	2228	2104	2058	
601	0	2096	2174	2108	2026	
602	0	2071	2066	2018	2111	
603	0	2074	1996	1976	2138	
604	0	2100	1956	2033	2118	
605	0	2068	2004	2058	2046	
606	0	2039	2040	2043	2003	
607	0	2073	2108	2049	2034	
608	0	2072	2140	2022	2094	
609	0	2047	2086	1973	2060	
610	0	1998	1971	1945	2067	
611	0	1982	1901	1954	2108	
612	0	1985	1935	1980	2063	
613	0	1970	1971	1993	2024	
614	0	1962	1994	2010	2002	
615	0	1941	2035	2017	1993	
616	0	1940	2102	2012	1943	
617	0	1996	2051	2020	1947	
618	0	2094	2035	2040	1960	
619	0	2115	2078	2044	1888	
620	0	2115	2082	2081	1945	
621	0	2168	2085	2141	2049	
622	0	2220	2197	2161	2018	
623	0	2260	2171	2229	2065	
624	0	2230	2168	2177	2063	
625	0	2123	2142	2141	2074	
626	0	2024	2027	2105	2094	
627	0	2001	1961	2005	2107	
628	0	1955	1988	1964	2116	
629	0	2019	2022	1944	2121	
630	0	2089	2022	1936	2125	
631	0	2105	2068	1978	2048	
632	0	2067	2101	1985	2060	
633	0	2012	2102	2025	2119	
634	0	1920	2059	2036	1991	
635	0	1894	2030	2067	1980	
636	0	1978	2002	2080	2062	
637	0	2004	2001	2058	2063	
638	0	1970	1976	2049	2045	
639	0	1983	1915	2019	2123	
640	0	2007	1955	2072	2129	
641	0	2043	1920	2091	2098	
642	0	1987	1994	2065	1985	
643	0	1997	2127	2032	1939	
644	0	2113	2232	2137	1933	
645	0	2221	2236	2183	1938	
646	0	2250	2095	2160	2027	
647	0	2184	2123	2111	2096	
648	0	2098	2160	2060	2060	
649	0	2052	2083	2031	2046	
650	0	2027	2024	2015	2074	
651	0	2009	1992	1986	2089	
652	0	1996	1973	1984	2102	
653	0	1982	1962	1970	2131	
654	0	1965	1956	1969	2114	
655	0	1978	1985	1982	2070	
656	0	2006	2006	2010	2052	
657	0	2032	2018	2051	2027	
658	0	2084	2062	2050	2013	
659	0	2104	2020	2062	2030	
660	0	2090	1976	2063	2008	
661	0	2046	1929	2012	2034	
662	0	2011	1950	2013	2037	
663	0	1943	1936	2002	2052	
664	0	1924	1998	1936	2090	
665	0	1999	2053	1960	2086	
666	0	2059	2060	2022	2083	
667	0	2065	2073	2060	2110	
668	0	2166	2221	2123	2012	
669	0	2199	2343	2177	1840	
670	0	2080	2270	2202	1902	
671	0	1998	2189	2256	2033	
672	0	2085	2094	2218	2108	
673	0	2018	2035	2041	2090	
674	0	2027	1972	1976	2026	
675	0	2118	2034	2031	2076	
676	0	2104	2105	2023	2089	
677	0	2074	2099	1955	2035	
678	0	2080	2008	1993	2037	
679	0	2030	1922	2079	2054	
680	0	2026	1893	2061	2056	
681	0	2097	2010	2034	1993	
682	0	2109	2087	2020	2030	
683	0	2076	2083	1999	2034	
684	0	1971	2051	1978	2060	
685	0	2001	2055	1977	2047	
686	0	2012	2056	2010	2113	
687	0	2038	2035	2014	2106	
688	0	1994	1978	2003	2069	
689	0	1977	1970	2025	2034	
690	0	2011	1960	2106	2041	
691	0	2055	1973	2124	2056	
692	0	2005	1972	2080	2116	
693	0	2013	1994	2101	2078	
694	0	2088	2036	2075	2021	
695	0	2137	2078	2046	2012	
696	0	2084	2089	2000	2129	
697	0	2082	2141	1997	2117	
698	0	2088	2183	1971	2016	
699	0	2005	2114	1975	2032	
700	0	1992	2050	2010	2033	
701	0	2086	2102	2048	1998	
702	0	2036	2120	2073	1959	
703	0	1967	2142	2088	1946	
704	0	1954	2112	2148	2052	
705	0	2004	2020	2204	2089	
706	0	2139	2044	2145	2034	
707	0	2226	2088	2098	2021	
708	0	2179	2046	2087	2066	
709	0	2119	2066	2060	2047	
710	0	2075	2036	1986	2052	
711	0	2073	1992	1983	2033	
712	0	2072	1930	2060	2033	
713	0	2061	1973	2022	1989	
714	0	2014	1989	1987	1990	
715	0	2000	1993	2038	2105	
716	0	1968	1972	2141	2196	
717	0	2023	1973	2159	2191	
718	0	2051	2015	2089	2163	
719	0	2037	2038	2035	2142	
720	0	2041	2030	2016	2141	
721	0	2077	2050	1974	2060	
722	0	2129	2053	1975	2032	
723	0	2111	2082	1978	2046	
724	0	2075	2078	2024	2057	
725	0	1949	2146	1984	1993	
726	0	1755	2144	1891	1945	
727	0	1745	2084	1883	1933	
728	0	1959	2061	2016	1942	
729	0	2130	1978	2044	1994	
730	0	2234	1974	2151	1996	
731	0	2271	2031	2206	1981	
732	0	2081	2047	2134	1984	
733	0	1714	1932	2034	2056	
734	0	1779	1950	2062	2018	
735	0	2014	1994	2170	1955	
736	0	2248	2094	2138	1952	
737	0	2445	2191	2108	1947	
738	0	2258	2256	2011	1930	
739	0	2088	2180	2096	2094	
740	0	2132	2188	2190	2110	
741	0	2184	2215	2189	2122	
742	0	2162	2170	2182	2185	
743	0	2129	2151	2102	2214	
744	0	2090	2133	1971	2154	
745	0	2007	2052	1909	2115	
746	0	1932	1994	1911	2119	
747	0	1927	1950	1924	2100	
748	0	1964	1964	1949	2067	
749	0	1977	1943	1984	2066	
750	0	2025	1999	2017	2006	
751	0	2015	2000	1995	1961	
752	0	1983	1974	1968	2043	
753	0	1966	1888	1998	2138	
754	0	1990	1903	2043	2070	
755	0	1992	1983	2052	1938	
756	0	1983	2007	2043	2013	
757	0	2018	2019	2031	2088	
758	0	2028	2036	2023	2125	
759	0	2031	1962	2012	2138	
760	0	2049	1965	2068	2127	
761	0	2028	2025	2103	2147	
762	0	2058	2106	2129	2033	
763	0	2101	2205	2092	1901	
764	0	2206	2186	2203	1822	
765	0	2295	2184	2192	1851	
766	0	2187	2075	2043	1965	
767	0	2085	2058	2016	2035	
768	0	1968	2072	2015	2067	
769	0	1834	2077	1977	2079	
770	0	1872	2111	1994	2082	
771	0	1972	2073	1982	2147	
772	0	2061	2031	2009	2096	
773	0	2105	1997	2029	2041	
774	0	2132	2006	2047	1979	
775	0	2088	2044	2000	1999	
776	0	2042	2032	1986	2061	
777	0	2019	2009	2019	2097	
778	0	2010	1992	2036	2060	
779	0	2033	1914	2064	2034	
780	0	2055	1922	2119	2048	
781	0	2047	1977	2121	2079	
782	0	2061	2057	2103	2079	
783	0	2058	2080	2131	2145	
784	0	2049	2096	2121	2127	
785	0	2104	2179	2136	2031	
786	0	2094	2213	2108	2038	
787	0	2063	2164	2046	2020	
788	0	2021	2060	2025	2064	
789	0	2025	1999	2003	2071	
790	0	2087	1997	2017	2076	
791	0	2142	2049	2000	2060	
792	0	2133	2107	2002	1989	
793	0	2122	2149	2039	1944	
794	0	2077	2128	2045	1936	
795	0	2066	2049	2056	1949	
796	0	2018	1971	2064	2005	
797	0	1986	2004	2032	2042	
798	0	2040	2067	2019	1975	
799	0	1880	1943	1908	1986	
800	0	1825	1914	1920	2042	
801	0	1839	1934	2014	2005	
802	0	1888	1915	2073	2104	
803	0	2074	1931	2102	2187	
804	0	2231	2104	2105	2114	
805	0	2330	2204	2179	2115	
806	0	2354	2104	2297	2188	
807	0	2248	2165	2256	2276	
808	0	2087	2248	2130	2188	
809	0	1988	2263	1997	1953	
810	0	1908	2210	1981	1879	
811	0	2011	2148	2031	1951	
812	0	2080	2060	2011	1971	
813	0	2056	1998	2001	1977	
814	0	2004	1981	1962	1998	
815	0	1986	1973	1956	2051	
816	0	1990	1967	1959	2070	
817	0	1967	1976	1982	2083	
818	0	1981	1979	1996	2089	
819	0	1958	1961	1982	2125	
820	0	2040	1943	2027	2108	
821	0	2139	1941	2098	2098	
822	0	2099	1946	2070	2091	
823	0	2025	1991	2033	2066	
824	0	1904	1960	1997	2046	
825	0	1894	1924	2020	2018	
826	0	1983	1897	2066	2010	
827	0	2045	1932	2050	1963	
828	0	2107	2063	1961	1972	
829	0	2040	2161	1915	2049	
830	0	1997	2259	1949	2096	
831	0	2055	2239	2082	2104	
832	0	2177	2215	2256	1967	
833	0	2261	2206	2262	1972	
834	0	2233	2198	2209	1988	
835	0	2153	2134	2154	1976	
836	0	2078	2090	2106	2013	
837	0	2106	2066	2166	2040	
838	0	2077	2025	2075	2018	
839	0	2027	1971	1973	2062	
840	0	2012	1958	1985	2132	
841	0	1988	1984	2001	2153	
842	0	1972	1950	2028	2148	
843	0	2014	1914	2090	2181	
844	0	2064	1893	2024	2180	
845	0	2098	1956	1977	2152	
846	0	2040	2054	1965	2109	
847	0	1996	2159	2001	2022	
848	0	2025	2166	2065	1943	
849	0	2062	2116	2054	1903	
850	0	2066	2191	2085	1802	
851	0	2085	2211	2102	1814	
852	0	2044	2085	2062	1951	
853	0	2041	2018	2069	2068	
854	0	2054	1959	2032	2107	
855	0	2037	1938	1997	2112	
856	0	2017	1969	2026	2173	
857	0	1970	1966	1984	2193	
858	0	1912	1945	1974	2148	
859	0	1939	1923	2002	2059	
860	0	1957	1894	1899	2047	
861	0	2001	1921	1898	2131	
862	0	2001	2034	1956	1964	
863	0	1967	2139	2058	1865	
864	0	2046	2193	2196	1953	
865	0	2109	2348	2227	1877	
866	0	2091	2239	2182	1874	
867	0	2109	2059	2155	1935	
868	0	2170	2159	2131	1969	
869	0	2242	2190	2154	1976	
870	0	2351	2215	2132	1999	
871	0	2333	2127	2114	2175	
872	0	2226	1976	2090	2398	
873	0	2074	1939	2021	2293	
874	0	1879	1949	1911	2134	
875	0	1863	1963	1925	2052	
876	0	1947	1996	1993	2099	
877	0	2045	2020	2019	2145	
878	0	2116	2042	2017	2154	
879	0	2141	2020	2008	2126	
880	0	2103	2035	2009	2056	
881	0	2084	2034	2078	2002	
882	0	1952	1997	2046	2032	
883	0	1758	1943	2005	2022	
884	0	1888	2034	2082	1938	
885	0	2055	2120	2082	1939	
886	0	2058	2070	2074	1977	
887	0	1999	1990	2027	1992	
888	0	1889	1962	1957	2028	
889	0	1861	1927	2028	2154	
890	0	2023	1980	2090	2168	
891	0	2126	1979	2053	2233	
892	0	2178	2060	2092	2135	
893	0	2139	2147	2041	1971	
894	0	2106	2257	2002	1914	
895	0	2066	2222	1972	1924	
896	0	2028	2159	1944	1922	
897	0	2001	2099	1962	1962	
898	0	1945	1993	2004	2030	
899	0	1945	1952	1973	2058	
900	0	1948	1930	1955	2072	
901	0	2038	1988	1938	2058	
902	0	2145	2005	2066	1989	
903	0	2169	1995	2123	2055	
904	0	2154	2037	2149	2099	
905	0	2021	2092	2127	2042	
906	0	2033	2107	2153	1989	
907	0	2156	2070	2272	2026	
908	0	2189	2094	2301	1981	
909	0	2219	2044	2326	1988	
910	0	2216	1995	2237	2033	
911	0	2199	2072	2118	2002	
912	0	2154	2141	2042	2104	
913	0	2011	2014	1947	2173	
914	0	1946	1954	1933	2229	
915	0	1884	2011	1891	2206	
916	0	1958	2121	1882	2098	
917	0	2006	2157	1891	2023	
918	0	1915	2088	1894	2034	
919	0	1867	1988	1949	2085	
920	0	1847	1974	1945	2019	
921	0	1896	1998	1918	2078	
922	0	2008	1953	2011	2133	
923	0	2049	2005	2105	2057	
924	0	2135	2039	2135	2045	
925	0	2133	2104	2063	2005	
926	0	2208	2130	2180	1971	
927	0	2296	2134	2274	1891	
928	0	2332	2149	2254	1830	
929	0	2122	2109	2154	1855	
930	0	1875	2056	2053	1978	
931	0	1952	2159	1989	2065	
932	0	2053	2159	1996	2070	
933	0	2101	2132	2041	2137	
934	0	2136	2090	2086	2119	
935	0	2100	2069	2059	2023	
936	0	2031	1986	2017	2087	
937	0	1958	1975	1982	2141	
938	0	1962	1988	2004	2045	
939	0	1991	1992	2010	2028	
940	0	2013	2015	1996	2032	
941	0	2020	2012	2011	2016	
942	0	2023	2028	2028	2038	
943	0	2025	1995	2062	2054	
944	0	2011	1970	2024	2183	
945	0	2001	1938	1999	2263	
946	0	1997	1880	1956	2260	
947	0	1988	1890	1967	2146	
948	0	1998	1906	1953	2073	
949	0	2028	1920	1990	2001	
950	0	2051	2010	2041	1948	
951	0	2032	2033	2009	1971	
952	0	1902	2109	1947	2010	
953	0	1930	2159	2114	1984	
954	0	2131	2188	2275	2036	
955	0	2271	2228	2291	2040	
956	0	2292	2234	2193	1983	
957	0	2301	2225	2096	1957	
958	0	2186	2172	2056	2014	
959	0	2140	2090	2041	2072	
960	0	2073	2069	2072	2000	
961	0	1974	2065	2078	1957	
962	0	1937	2014	2054	2057	
963	0	1964	2003	2082	2109	
964	0	2026	2105	2114	2149	
965	0	2049	2054	2075	2127	
966	0	2042	1984	2015	2041	
967	0	2031	2008	1979	1991	
968	0	1998	2026	1972	2017	
969	0	2009	1997	2001	2047	
970	0	2026	2007	2011	1984	
971	0	2024	2019	1976	1950	
972	0	2003	1991	1947	2036	
973	0	2010	1928	1927	2179	
974	0	2032	1855	1911	2225	
975	0	1993	1919	1927	2126	
976	0	1921	2063	1983	1992	
977	0	1832	2085	2011	2033	
978	0	1871	2136	2062	2059	
979	0	1952	2110	2171	2061	
980	0	2105	2045	2214	2061	
981	0	2229	2080	2185	2009	
982	0	2278	2141	2213	1921	
983	0	2239	2160	2179	1935	
984	0	2182	2150	2080	1957	
985	0	2137	2119	2109	2030	
986	0	2156	2038	2100	2142	
987	0	2125	2052	2014	2031	
988	0	2103	2071	2016	1991	
989	0	2103	2059	2004	2040	
990	0	2110	2060	1964	2107	
991	0	2088	2057	1983	2082	
992	0	2023	2002	1955	2101	
993	0	1990	1989	1941	2112	
994	0	2025	1980	2016	2097	
995	0	1887	1973	2069	2086	
996	0	2064	1990	2209	2071	
997	0	2014	2000	2133	2001	
998	0	1933	2040	2020	1982	
999	0	1998	2006	2008	1989	
1000	0	1971	1990	1970	1966	
1001	0	1901	2020	1952	2006	
1002	0	1964	2043	2012	2090	
1003	0	2058	2037	2048	2249	
1004	0	2063	2109	2065	2278	
1005	0	2094	2119	2142	2148	
1006	0	2106	2100	2123	2054	
1007	0	2088	2081	2052	1964	
1008	0	2049	2139	1946	1936	
1009	0	2018	2108	1914	1986	
1010	0	2009	2057	2011	2076	
1011	0	2053	2000	2085	2030	
1012	0	2084	2070	2065	1871	
1013	0	2130	2082	2076	1888	
1014	0	2223	2081	2118	2003	
1015	0	2288	2072	2124	2023	
1016	0	2203	2063	2130	2056	
1017	0	2061	2027	2061	2082	
1018	0	1909	1868	2011	2121	
1019	0	1727	1820	1994	2100	
1020	0	1869	1927	2125	2053	
1021	0	2039	2052	2192	2032	
1022	0	2052	2152	2107	2101	
1023	0	1992	2261	2030	2144	
1024	0	2002	2310	2054	2065	
1025	0	2062	2185	2079	2047	
1026	0	2156	2136	1988	1953	
1027	0	2164	2098	1958	1909	
1028	0	2200	2058	2017	2036	
1029	0	2119	2013	2042	2130	
1030	0	1925	1981	1981	2112	
1031	0	1850	1931	1935	2121	
1032	0	1991	1878	2015	2107	
1033	0	2092	1908	2076	2035	
1034	0	2116	2025	2076	1942	
1035	0	2101	2061	2011	1931	
1036	0	2077	2079	2037	1983	
1037	0	2064	2063	2030	2046	
1038	0	2015	2048	2051	2124	
1039	0	1973	2053	2088	2218	
1040	0	1987	1935	2068	2256	
1041	0	2012	1960	2033	2189	
1042	0	2013	2012	1975	2075	
1043	0	2074	2077	2089	1945	
1044	0	2235	2115	2189	1916	
1045	0	2301	2073	2131	1898	
1046	0	2218	2197	2046	1897	
1047	0	2131	2214	1984	1916	
1048	0	1987	2117	1959	2031	
1049	0	1784	2044	1905	2134	
1050	0	1850	2124	1942	2133	
1051	0	1947	2114	2031	2163	
1052	0	1953	2000	2100	2173	
1053	0	1995	1951	2206	2172	
1054	0	2115	1969	2279	2154	
1055	0	2154	1953	2154	2081	
1056	0	2146	1953	2106	2071	
1057	0	2159	1991	2131	2028	
1058	0	2055	2018	2139	1912	
1059	0	2011	2049	2087	1858	
1060	0	2118	2101	2036	1890	
1061	0	2128	2082	1912	1939	
1062	0	2121	2171	1972	1857	
1063	0	2069	2238	1998	1862	
1064	0	2045	2244	1969	2028	
1065	0	2029	2134	1973	2103	
1066	0	2003	2056	1981	2034	
1067	0	1965	2018	1986	2023	
1068	0	1942	1945	2000	2090	
1069	0	1973	1925	1993	2112	
1070	0	2013	1929	2007	2140	
1071	0	2042	1919	2004	2167	
1072	0	2057	1960	2036	2117	
1073	0	2045	2035	2074	2102	
1074	0	2058	2159	2062	2122	
1075	0	2096	2103	2078	2141	
1076	0	2038	1998	2070	2141	
1077	0	2037	2008	2071	2062	
1078	0	2073	2042	2117	1990	
1079	0	2091	2081	2119	2028	
1080	0	2073	2034	2108	2050	
1081	0	2048	2116	2060	1962	
1082	0	2022	2102	2012	2039	
1083	0	1987	2013	2005	2065	
1084	0	1967	1995	2006	2096	
1085	0	1973	2056	1986	2114	
1086	0	1991	2040	1927	2193	
1087	0	1970	2052	1899	2123	
1088	0	1975	2050	1948	2013	
1089	0	2029	2048	2042	1962	
1090	0	2144	2007	2114	1997	
1091	0	2166	1970	2070	1991	
1092	0	2162	1990	2113	2019	
1093	0	2129	2074	2158	2115	
1094	0	2013	2085	2143	2082	
1095	0	1990	2039	2142	2042	
1096	0	2061	2080	2144	2004	
1097	0	2188	2114	2149	2008	
1098	0	2219	2104	2192	1956	
1099	0	2145	2061	2116	1940	
1100	0	2041	2025	2066	1969	
1101	0	2007	2086	1946	2006	
1102	0	2009	2149	1994	2051	
1103	0	2050	2077	2055	2072	
1104	0	2021	1989	2017	2092	
1105	0	1958	1940	1979	2076	
1106	0	1913	1978	1964	2020	
1107	0	1953	2024	1929	2074	
1108	0	2039	2030	2018	2149	
1109	0	2142	2076	2147	2153	
1110	0	2149	2170	2138	2031	
1111	0	2069	2162	2094	2020	
1112	0	1990	2040	2077	2061	
1113	0	1956	1974	2038	2071	
1114	0	1891	1974	1975	2057	
1115	0	2095	2084	2048	1986	
1116	0	2256	2085	2109	2078	
1117	0	2296	2041	2153	2085	
1118	0	2166	2053	2026	2060	
1119	0	2026	2104	1981	2063	
1120	0	1974	2118	1987	2108	
1121	0	1977	2037	1986	2154	
1122	0	1991	1952	1984	2140	
1123	0	1971	1899	1989	2023	
1124	0	1947	1955	1962	2002	
1125	0	1908	2043	1983	1965	
1126	0	1949	2121	2045	1875	
1127	0	2022	2199	2068	1846	
1128	0	2047	2231	2045	1875	
1129	0	2058	2174	2006	1956	
1130	0	2072	2076	1986	2078	
1131	0	2140	2057	2007	2071	
1132	0	2187	2035	2109	2033	
1133	0	2174	2007	2237	2100	
1134	0	2144	1996	2236	2187	
1135	0	2096	2004	2095	2096	
1136	0	1992	1978	2076	2089	
1137	0	2013	1949	2127	2073	
1138	0	2106	1940	2058	2063	
1139	0	2076	1939	1988	2073	
1140	0	2055	1966	1954	2133	
1141	0	1984	1964	1915	2182	
1142	0	1929	2064	1976	2058	
1143	0	1959	2127	2047	2024	
1144	0	1971	2108	2084	2081	
1145	0	1977	2130	2075	1997	
1146	0	2016	2098	2072	1955	
1147	0	2067	2114	2078	2033	
1148	0	2164	2086	2098	1963	
1149	0	2266	2080	2093	2034	
1150	0	2185	2103	2000	2034	
1151	0	2090	2102	1981	1944	
1152	0	2062	2063	2013	1974	
1153	0	2012	2015	2038	2012	
1154	0	2009	2062	2069	2087	
1155	0	1998	2033	2042	2069	
1156	0	1952	2022	1971	2036	
1157	0	1967	2022	1966	2036	
1158	0	2031	2039	2045	2066	
1159	0	2104	2033	2064	2069	
1160	0	2067	1960	2063	2038	
1161	0	1893	1928	2046	2039	
1162	0	1960	1950	2101	2036	
1163	0	2154	2054	2079	2006	
1164	0	2147	2135	2118	2063	
1165	0	2075	2073	2149	2185	
1166	0	2064	1969	2029	2167	
1167	0	2006	2007	1948	2112	
1168	0	2037	2110	1947	2100	
1169	0	2166	2185	2024	2022	
1170	0	2149	2157	2024	2022	
1171	0	1939	2068	1980	2056	
1172	0	1984	2088	2008	2028	
1173	0	1993	2143	2045	1973	
1174	0	1859	2118	2028	1935	
1175	0	1912	2051	2159	1980	
1176	0	2068	2032	2182	2049	
1177	0	2211	1954	2250	2153	
1178	0	2193	1933	2239	2135	
1179	0	2161	1987	2169	2208	
1180	0	2150	2016	2048	2121	
1181	0	2105	2023	2052	2061	
1182	0	2077	2050	2058	2083	
1183	0	2002	2064	2002	2080	
1184	0	2044	2089	1987	2050	
1185	0	2056	2095	1973	2019	
1186	0	2021	2043	1964	1990	
1187	0	2016	2028	1969	1927	
1188	0	2008	2110	1955	1934	
1189	0	2018	2210	1968	1933	
1190	0	2101	2219	1980	1975	
1191	0	2148	2133	2026	2014	
1192	0	2104	2005	2055	2054	
1193	0	2002	1916	2025	2092	
1194	0	1876	1877	2029	2115	
1195	0	1880	1860	2005	2140	
1196	0	1788	1834	1997	2082	
1197	0	1805	1862	2044	2111	
1198	0	1927	1923	2144	2083	
1199	0	2078	2078	2229	2053	
1200	0	2213	2146	2159	2046	
1201	0	2317	2152	2165	2048	
1202	0	2248	2164	2108	2087	
1203	0	2180	2156	2087	1990	
1204	0	2129	2171	2017	1923	
1205	0	2121	2205	1942	1940	
1206	0	2112	2207	1992	1945	
1207	0	2083	2142	1998	1988	
1208	0	2051	2056	2016	2038	
1209	0	2040	2005	2066	2056	
1210	0	2033	1970	2005	2087	
1211	0	2017	1970	1975	2083	
1212	0	2006	1994	1957	2133	
1213	0	2011	1989	1976	2136	
1214	0	1997	2020	2006	2068	
1215	0	1995	2036	2012	2013	
1216	0	1983	2000	2058	2049	
1217	0	2008	2025	2075	2053	
1218	0	2094	2096	2122	2070	
1219	0	2089	2087	2112	2113	
1220	0	2001	2060	2052	2148	
1221	0	1941	2021	1976	2108	
1222	0	1906	1962	1981	2058	
1223	0	1979	2012	2058	1997	
1224	0	2079	2054	2063	2019	
1225	0	2147	2066	2099	2033	
1226	0	2106	2067	2117	2019	
1227	0	2129	1996	2165	2116	
1228	0	2196	1982	2167	2121	
1229	0	2215	2017	2084	2066	
1230	0	2149	1998	2061	2031	
1231	0	2129	2084	2086	2026	
1232	0	2069	2145	2051	2063	
1233	0	1740	2060	1924	1978	
1234	0	1757	1958	1934	1956	
1235	0	1981	1943	2061	1980	
1236	0	1962	1900	1962	2135	
1237	0	1932	1886	1918	2166	
1238	0	2053	2069	1960	2044	
1239	0	2035	2192	1955	2044	
1240	0	2059	2258	2086	2018	
1241	0	2010	2224	2114	1925	
1242	0	2102	2093	2157	1967	
1243	0	2199	2109	2216	2028	
1244	0	2245	2140	2195	2219	
1245	0	2189	2060	2098	2244	
1246	0	2160	1986	2064	2056	
1247	0	2133	2078	2055	1817	
1248	0	2039	2107	2076	1705	
1249	0	2068	2077	2144	1888	
1250	0	2073	2053	2173	2011	
1251	0	1969	2110	2028	2029	
1252	0	1939	2189	1860	2026	
1253	0	2091	2180	1965	2040	
1254	0	2238	2069	2166	2166	
1255	0	2193	2010	2103	2194	
1256	0	2150	1986	2030	2152	
1257	0	2088	1994	2016	2132	
1258	0	2051	2044	1992	2081	
1259	0	2010	1991	1990	2071	
1260	0	1975	1963	1974	2057	
1261	0	1921	1980	1975	2083	
1262	0	1923	1960	2016	2194	
1263	0	1921	1935	2007	2178	
1264	0	1920	1915	2003	2106	
1265	0	1901	1899	1982	2050	
1266	0	1960	2004	1957	1999	
1267	0	1944	2022	1950	1947	
1268	0	1935	2079	1988	1957	
1269	0	2042	2117	2043	2009	
1270	0	2055	2157	2064	1959	
1271	0	2054	2098	2113	2025	
1272	0	2110	2093	2242	2026	
1273	0	2220	2152	2242	1899	
1274	0	2261	2178	2193	1962	
1275	0	2295	2162	2167	2067	
1276	0	2283	2120	2087	2064	
1277	0	2030	2058	2026	2067	
1278	0	1865	1948	1977	2049	
1279	0	1893	1939	1949	2045	
1280	0	1967	1949	1975	2052	
1281	0	2071	2035	2090	2054	
1282	0	2115	2105	2068	2096	
1283	0	2104	2039	2032	2118	
1284	0	2075	2023	2028	2166	
1285	0	2074	2033	1994	2116	
1286	0	2036	2024	1932	2132	
1287	0	1946	1955	1876	2166	
1288	0	1919	1972	1870	2160	
1289	0	1851	1955	1869	2182	
1290	0	1886	1977	1942	2047	
1291	0	1920	1966	1988	1950	
1292	0	1978	2069	2058	1952	
1293	0	2051	2231	2156	1961	
1294	0	2030	2284	2171	1962	
1295	0	2199	2252	2261	1912	
1296	0	2270	2105	2311	1961	
1297	0	2162	1960	2241	2008	
1298	0	2116	1922	2206	1972	
1299	0	2156	2009	2230	1981	
1300	0	2203	2145	2179	2038	
1301	0	2212	2151	2146	2074	
1302	0	2204	2110	2106	1991	
1303	0	2109	2116	1994	1983	
1304	0	2012	2093	1896	2073	
1305	0	1983	2075	1894	2078	
1306	0	1978	2083	1899	2066	
1307	0	2038	2024	1938	2131	
1308	0	2101	1975	2003	2135	
1309	0	2048	1943	1940	2111	
1310	0	1951	1928	1950	2113	
1311	0	1857	1935	1982	2195	
1312	0	1880	1929	2024	2153	
1313	0	1957	2051	2046	2073	
1314	0	2007	2086	2065	2028	
1315	0	2049	2080	2039	1937	
1316	0	2055	2031	2023	2001	
1317	0	2048	2035	2032	1948	
1318	0	2057	2086	2009	1894	
1319	0	2068	2145	2022	1821	
1320	0	1989	2118	2057	1955	
1321	0	1934	2061	2122	1995	
1322	0	1969	2059	2173	2063	
1323	0	2080	2011	2156	2174	
1324	0	2181	2049	2176	2075	
1325	0	2269	2136	2158	2036	
1326	0	2181	2132	2095	2146	
1327	0	2143	2087	2037	2157	
1328	0	2070	2011	1998	2168	
1329	0	2034	1976	1992	2187	
1330	0	2004	1972	1951	2111	
1331	0	2019	1975	1963	2123	
1332	0	2050	1956	1947	2196	
1333	0	2050	1961	1953	2145	
1334	0	2029	1946	1958	2089	
1335	0	1964	1931	1963	2067	
1336	0	1913	1941	1990	1995	
1337	0	1916	1984	1993	1912	
1338	0	1944	2075	2055	1995	
1339	0	1986	2063	2163	1936	
1340	0	2054	2087	2231	1852	
1341	0	2069	2229	2209	1923	
1342	0	2121	2208	2099	1967	
1343	0	2238	2100	2083	2046	
1344	0	2211	2076	2183	2091	
1345	0	2162	2162	2224	2043	
1346	0	2142	2263	2080	2048	
1347	0	2160	2288	2008	1998	
1348	0	2116	2103	1992	2002	
1349	0	2100	1999	1954	2025	
1350	0	2080	1955	1972	2031	
1351	0	2008	1913	1954	2092	
1352	0	1914	1912	1953	2145	
1353	0	1828	1943	1953	2146	
1354	0	1849	2061	1946	2064	
1355	0	2000	2142	1991	2027	
1356	0	2086	2067	2009	2080	
1357	0	2056	1951	1987	2104	
1358	0	1992	1916	2042	2140	
1359	0	1970	1931	2137	2129	
1360	0	1898	1899	2106	2075	
1361	0	2031	1978	2054	1922	
1362	0	2077	2075	2089	1924	
1363	0	2144	2092	2180	1966	
1364	0	2259	2069	2172	2130	
1365	0	2090	2119	2088	2159	
1366	0	1959	2200	2045	1929	
1367	0	2144	2221	2121	1886	
1368	0	2231	2239	2124	1953	
1369	0	2169	2221	2071	1966	
1370	0	2067	2107	2034	2045	
1371	0	1997	2004	1950	2133	
1372	0	1954	1986	1889	2108	
1373	0	1902	1968	1926	2132	
1374	0	1930	1990	2022	2101	
1375	0	1980	1990	2089	2113	
1376	0	1900	1942	2020	2117	
1377	0	1866	1970	1919	2081	
1378	0	1947	1958	1999	2086	
1379	0	2082	2006	2081	2103	
1380	0	2297	2043	2226	2110	
1381	0	2327	2043	2146	2089	
1382	0	2354	2103	2163	1979	
1383	0	2246	2147	2186	1983	
1384	0	2123	2183	2151	1886	
1385	0	2066	2139	2096	1904	
1386	0	1982	2131	2006	1984	
1387	0	2027	2037	2017	2070	
1388	0	2004	2035	1983	2075	
1389	0	1974	2029	1920	2036	
1390	0	1961	1991	1943	2020	
1391	0	1995	2028	2010	2017	
1392	0	1990	1993	1996	2046	
1393	0	1994	1958	1905	2061	
1394	0	1969	1956	1863	2036	
1395	0	1930	1897	1874	2104	
1396	0	1911	1854	1960	2090	
1397	0	1922	1784	1961	2201	
1398	0	1767	1860	1978	2187	
1399	0	1957	2026	2119	2221	
1400	0	2120	2214	2267	2182	
1401	0	2273	2361	2338	1982	
1402	0	2318	2374	2310	1873	
1403	0	2428	2358	2348	1812	
1404	0	2251	2254	2192	1881	
1405	0	2123	2151	2094	2029	
1406	0	2187	2149	2046	2112	
1407	0	2101	2088	1981	2086	
1408	0	2026	2010	2001	2077	
1409	0	1956	1964	1987	2152	
1410	0	1924	1934	1983	2151	
1411	0	1943	1951	1954	2085	
1412	0	1973	1932	1970	2053	
1413	0	2017	1960	1985	2074	
1414	0	2031	1974	2033	2058	
1415	0	1932	1956	2004	2100	
1416	0	1791	1895	1931	2089	
1417	0	1857	1937	1974	2018	
1418	0	2059	2043	2072	1950	
1419	0	2254	2127	2132	1906	
1420	0	2144	2103	2063	1941	
1421	0	1992	2133	2025	1910	
1422	0	2026	2137	2072	1852	
1423	0	2107	2079	2052	1949	
1424	0	2190	2091	2085	2086	
1425	0	2138	2066	2066	2130	
1426	0	1995	2036	2018	2105	
1427	0	1992	2061	1975	2052	
1428	0	1986	2071	1933	2079	
1429	0	2028	2100	1934	2098	
1430	0	2046	2110	1999	2111	
1431	0	2035	2059	2014	2061	
1432	0	2047	2022	2051	2008	
1433	0	2040	1972	2131	2152	
1434	0	2038	1914	2155	2234	
1435	0	1998	1911	2122	2163	
1436	0	2137	1987	2231	2029	
1437	0	2248	2049	2226	1991	
1438	0	2177	2009	2085	2079	
1439	0	2097	2011	2046	2138	
1440	0	2089	2129	2062	1996	
1441	0	2011	2185	2036	1899	
1442	0	1988	2179	1994	1945	
1443	0	2004	2114	2032	2017	
1444	0	2022	2066	2034	2047	
1445	0	2005	2082	1982	1974	
1446	0	1988	2058	1969	1997	
1447	0	1969	2017	1958	2037	
1448	0	2003	1990	1974	2032	
1449	0	2051	2006	2024	2017	
1450	0	2090	1990	2072	2032	
1451	0	2078	1987	2080	2132	
1452	0	1983	2082	1996	2155	
1453	0	1949	2055	1955	2155	
1454	0	1943	1995	2012	2137	
1455	0	1985	2113	2095	2065	
1456	0	2112	2189	2154	1998	
1457	0	2202	2161	2186	1954	
1458	0	2157	2022	2146	2014	
1459	0	2118	1928	2069	2030	
1460	0	2096	1964	2035	2087	
1461	0	2062	2006	2001	2213	
1462	0	2024	2031	1986	2135	
1463	0	2040	2069	1990	2170	
1464	0	2052	2024	2016	2037	
1465	0	2004	1972	1967	1987	
1466	0	1913	1885	1903	2078	
1467	0	1846	1950	1882	2086	
1468	0	1829	2029	1863	1945	
1469	0	1926	2067	1935	1858	
1470	0	1993	2139	2059	1843	
1471	0	2046	2138	2168	1974	
1472	0	2139	2152	2205	2089	
1473	0	2276	2224	2227	2122	
1474	0	2359	2138	2334	2085	
1475	0	2269	2048	2285	2039	
1476	0	2075	2047	2065	1989	
1477	0	2044	2118	2025	1949	
1478	0	2047	2077	2114	2081	
1479	0	2133	2040	2227	2234	
1480	0	2213	2050	2173	2231	
1481	0	2172	2087	2053	2152	
1482	0	2216	2053	2019	2084	
1483	0	2055	1982	1957	1980	
1484	0	1971	2006	1981	1903	
1485	0	1856	2021	1939	1909	
1486	0	1822	2030	1919	1976	
1487	0	1872	2003	1939	1995	
1488	0	1911	1973	1965	2015	
1489	0	2052	2001	2026	2048	
1490	0	2146	2047	1969	2103	
1491	0	2140	2090	1968	2113	
1492	0	2022	2105	2029	2119	
1493	0	2022	2065	2042	2145	
1494	0	2068	1988	2099	2161	
1495	0	2085	1931	2099	2147	
1496	0	2054	1942	2114	2071	
1497	0	2025	1947	2105	2051	
1498	0	2046	1986	2078	2048	
1499	0	1944	1989	2003	2009	
1500	0	1928	2120	2076	1926	
1501	0	1994	2280	2117	1846	
1502	0	2150	2210	2156	1967	
1503	0	2201	2114	2050	2112	
1504	0	2119	2035	1965	2129	
1505	0	2071	2039	1975	2072	
1506	0	1930	2054	1956	1955	
1507	0	1960	2116	2035	1900	
1508	0	2034	2103	2059	1865	
1509	0	2096	2064	2047	1936	
1510	0	2086	2031	2018	2029	
1511	0	2016	1970	1953	2088	
1512	0	1914	1912	1951	2154	
1513	0	1822	1894	1945	2143	
1514	0	1962	2014	1975	2140	
1515	0	1964	2060	1905	2076	
1516	0	1994	2045	1957	2101	
1517	0	2106	2106	2128	2117	
1518	0	2310	2176	2277	2029	
1519	0	2324	2175	2308	2024	
1520	0	2152	2133	2245	2096	
1521	0	2164	2091	2222	2146	
1522	0	2269	2024	2219	2247	
1523	0	2222	2027	2136	2228	
1524	0	2088	2028	2073	2089	
1525	0	2012	2057	2058	1978	
1526	0	1993	2056	2046	1897	
1527	0	1981	2058	1992	1860	
1528	0	1979	2051	1956	1962	
1529	0	2020	2051	1978	2014	
1530	0	1936	2008	1941	1990	
1531	0	1925	2002	1946	1952	
1532	0	1988	2029	1933	1973	
1533	0	2011	2024	1959	2039	
1534	0	1997	1991	1994	2035	
1535	0	1950	1986	1976	2039	
1536	0	1985	1980	1992	2134	
1537	0	2104	2031	2068	2106	
1538	0	2130	2095	2076	2188	
1539	0	2084	2085	2070	2267	
1540	0	2088	2090	2121	2197	
1541	0	2167	2027	2113	2107	
1542	0	2115	1920	2146	2146	
1543	0	1987	1918	2137	2101	
1544	0	1936	2040	2047	1987	
1545	0	1998	2144	1948	1932	
1546	0	2060	2211	2038	1829	
1547	0	2015	2171	2067	1790	
1548	0	2036	2123	2068	1885	
1549	0	2127	2087	2041	2015	
1550	0	2106	2096	1995	2109	
1551	0	2092	2035	2026	2134	
1552	0	2130	1983	2089	2123	
1553	0	2105	1990	2113	2106	
1554	0	2097	2039	2021	2080	
1555	0	1962	2055	1948	2082	
1556	0	1818	2045	1955	2069	
1557	0	1908	2031	2023	1950	
1558	0	1928	1992	1963	1987	
1559	0	1850	1902	1926	2065	
1560	0	1899	2016	2083	1957	
1561	0	2079	2166	2140	1915	
1562	0	2121	2172	2118	1947	
1563	0	2246	2150	2210	1965	
1564	0	2300	2125	2194	2170	
1565	0	2265	2103	2057	2197	
1566	0	2165	2127	2025	2047	
1567	0	2071	2037	2031	2057	
1568	0	2019	2016	2013	2107	
1569	0	2027	1996	2027	2089	
1570	0	2044	1931	2045	2038	
1571	0	2071	2001	2050	2015	
1572	0	2104	2117	2086	2041	
1573	0	2072	2053	2049	2105	
1574	0	2024	1981	2045	2113	
1575	0	2064	1997	2105	2050	
1576	0	2040	2036	2043	2060	
1577	0	1995	1995	1963	2107	
1578	0	1966	2018	1882	2106	
1579	0	1896	1979	1852	2096	
1580	0	1930	1952	1955	2116	
1581	0	1859	1976	1967	2036	
1582	0	1784	1989	1928	2043	
1583	0	1902	2088	1947	2117	
1584	0	2113	2155	2161	2010	
1585	0	2352	2171	2404	1953	
1586	0	2334	2137	2357	2040	
1587	0	2188	2138	2220	2087	
1588	0	2089	2158	2088	1934	
1589	0	2094	2126	2089	1867	
1590	0	2093	2067	2043	1972	
1591	0	2033	1947	1969	2048	
1592	0	1994	1938	1962	2012	
1593	0	2009	1924	1998	2013	
1594	0	2075	2023	2121	2039	
1595	0	2069	2125	2144	2116	
1596	0	2045	2150	2037	2103	
1597	0	2042	2094	1915	2117	
1598	0	2023	2069	1933	2055	
1599	0	2076	2111	2022	2019	
1600	0	2133	2070	2054	2057	
1601	0	2095	2010	2020	2078	
1602	0	2017	1985	1981	2021	
1603	0	1988	1970	1969	2052	
1604	0	2011	2008	2052	2137	
1605	0	1993	2039	2051	2145	
1606	0	1997	2013	2089	2124	
1607	0	2056	1991	2104	2092	
1608	0	2120	1980	2103	2042	
1609	0	2045	2009	1993	1939	
1610	0	2060	2053	1966	1944	
1611	0	2157	2089	2054	1987	
1612	0	2092	2091	2104	1931	
1613	0	2020	2037	2116	1991	
1614	0	2014	2066	2142	2055	
1615	0	1903	2110	2095	2029	
1616	0	1952	2089	2066	2111	
1617	0	2051	2049	2067	2101	
1618	0	2056	2028	2041	2067	
1619	0	2059	2118	2018	1997	
1620	0	2041	2092	1987	2027	
1621	0	2001	2019	1932	2101	
1622	0	1971	2011	1922	2098	
1623	0	1972	1987	1896	2174	
1624	0	1955	1961	1913	2158	
1625	0	1936	1916	1948	2149	
1626	0	1976	1951	2028	2052	
1627	0	1998	2065	2046	1909	
1628	0	2110	2152	2130	1901	
1629	0	2194	2150	2272	1919	
1630	0	2249	2128	2307	1908	
1631	0	2304	2103	2337	1941	
1632	0	2284	2058	2298	2017	
1633	0	2159	2105	2134	2090	
1634	0	1996	2148	2024	2200	
1635	0	2006	2166	2037	2148	
1636	0	2032	2161	1979	2125	
1637	0	2042	2100	1944	2089	
1638	0	2050	2050	1938	2062	
1639	0	2021	2012	1926	2076	
1640	0	1989	1992	1928	2067	
1641	0	1974	2020	1971	1994	
1642	0	1981	2035	2003	2036	
1643	0	2023	2015	2001	2093	
1644	0	2065	1989	2045	2098	
1645	0	2052	1980	2071	2094	
1646	0	2061	2017	2110	2080	
1647	0	2035	2022	2065	2056	
1648	0	2028	2031	2044	2009	
1649	0	2052	2055	2066	2008	
1650	0	2089	2019	2065	2049	
1651	0	2063	2038	2033	2043	
1652	0	2051	2042	2020	1997	
1653	0	2046	1997	2016	2157	
1654	0	2017	1915	2002	2147	
1655	0	2067	1989	1969	2000	
1656	0	2010	2040	1928	1937	
1657	0	1949	1966	1954	2060	
1658	0	1977	1914	2023	2104	
1659	0	2080	2051	2077	2095	
1660	0	2179	2146	2097	2078	
1661	0	2097	2140	2086	1932	
1662	0	1973	2048	2080	1898	
1663	0	1805	2018	2113	1867	
1664	0	1858	2048	2173	1884	
1665	0	2125	2195	2252	2083	
1666	0	2179	2222	2202	2129	
1667	0	2225	2242	2147	2088	
1668	0	2211	2190	2117	2115	
1669	0	2188	2103	2134	2067	
1670	0	2108	2022	2048	2072	
1671	0	2078	1978	2013	2097	
1672	0	2073	1976	1967	2036	
1673	0	2031	1991	1946	1995	
1674	0	1964	1990	1945	2034	
1675	0	1939	2014	1983	2071	
1676	0	2019	2018	1992	2100	
1677	0	2081	2020	1989	2092	
1678	0	2076	2037	1963	2105	
1679	0	2043	2045	1977	2020	
1680	0	1942	2052	1988	2001	
1681	0	1847	2002	1973	2072	
1682	0	1939	2023	1951	2023	
1683	0	1976	2007	2009	2048	
1684	0	2044	2016	2027	2129	
1685	0	2115	1985	2090	2085	
1686	0	2060	1959	2048	2053	
1687	0	2023	2062	2030	1948	
1688	0	2137	2138	2127	1923	
1689	0	2323	2094	2324	1977	
1690	0	2336	2079	2373	1959	
1691	0	2162	2047	2180	2093	
1692	0	2092	2082	2088	2146	
1693	0	2059	2091	1990	2065	
1694	0	1944	2093	1969	2074	
1695	0	1898	2075	2046	2063	
1696	0	1916	2079	2096	2055	
1697	0	1987	2142	2050	2035	
1698	0	2039	2175	2044	2080	
1699	0	2100	2135	2036	2076	
1700	0	2083	2051	1997	2071	
1701	0	2022	2030	1945	2148	
1702	0	1962	1982	1950	2106	
1703	0	1989	1922	1944	1988	
1704	0	2018	1911	1954	1995	
1705	0	2018	1938	1995	2045	
1706	0	2008	2005	2021	2008	
1707	0	2010	1982	2030	2053	
1708	0	2033	2021	2012	2105	
1709	0	2022	2019	1978	2161	
1710	0	2022	2056	2012	2104	
1711	0	2055	2158	1999	2002	
1712	0	2098	2135	2020	1990	
1713	0	2141	2069	2113	2056	
1714	0	2141	2042	2161	2062	
1715	0	2110	2014	2058	2033	
1716	0	2075	1990	2106	1963	
1717	0	2104	2008	2149	1963	
1718	0	2104	2075	2145	1938	
1719	0	2063	2165	2140	1937	
1720	0	2034	2178	2112	1983	
1721	0	2050	2104	2111	2095	
1722	0	2061	2088	2103	2097	
1723	0	2036	2042	1995	2088	
1724	0	2078	2006	2000	2087	
1725	0	2166	2009	2070	2016	
1726	0	2239	2019	2129	1990	
1727	0	2017	1998	1960	1974	
1728	0	1850	2023	1838	2096	
1729	0	1729	2024	1883	2182	
1730	0	1828	2010	2044	2165	
1731	0	1978	2075	2031	2087	
1732	0	2052	2046	2029	2006	
1733	0	2063	2021	2057	2015	
1734	0	2058	1993	2072	2039	
1735	0	2140	2020	2096	2072	
1736	0	2127	2028	2110	2101	
1737	0	2019	1953	2021	2136	
1738	0	2049	2007	2035	2073	
1739	0	2087	2059	2007	2094	
1740	0	2156	2072	2046	2093	
1741	0	2145	2045	2069	2079	
1742	0	2178	2124	2088	2027	
1743	0	2165	2163	2100	1928	
1744	0	2019	2142	2024	1840	
1745	0	1967	2111	2042	1902	
1746	0	2033	2044	2126	2056	
1747	0	1998	1992	2112	2084	
1748	0	2000	1985	2125	2076	
1749	0	2033	2050	2065	2029	
1750	0	2045	2095	2079	2036	
1751	0	2057	2082	2055	2130	
1752	0	2150	2049	2000	2042	
1753	0	2072	1960	1953	2108	
1754	0	1956	1878	1963	2165	
1755	0	1885	1893	2013	2205	
1756	0	2003	2018	2077	2081	
1757	0	2081	2182	2086	2031	
1758	0	2016	2322	2014	1932	
1759	0	2074	2201	1967	1957	
1760	0	2140	2134	2104	2052	
1761	0	2216	2158	2200	1994	
1762	0	2149	2081	2117	1936	
1763	0	2027	2048	2035	1896	
1764	0	1991	2015	1994	2025	
1765	0	1990	1912	1957	2043	
1766	0	2047	1944	1940	2077	
1767	0	2020	1967	1982	2177	
1768	0	2036	2044	2072	2146	
1769	0	2092	2067	2075	2057	
1770	0	2094	2005	2052	2068	
1771	0	2094	1970	2100	2145	
1772	0	2061	2041	2098	2048	
1773	0	1988	2078	2115	1988	
1774	0	1968	2107	2129	2093	
1775	0	1990	2031	2137	2142	
1776	0	2005	1951	2105	2080	
1777	0	2023	1934	2099	2071	
1778	0	2035	1969	2065	2055	
1779	0	2018	2023	2044	1966	
1780	0	2004	2036	2015	1934	
1781	0	2146	2130	2030	1920	
1782	0	2174	2208	1911	1918	
1783	0	2099	2125	1818	2014	
1784	0	2091	2109	1925	2096	
1785	0	2033	2149	2006	2062	
1786	0	1951	2087	1976	2057	
1787	0	1982	2040	2012	2083	
1788	0	2023	2064	2050	2020	
1789	0	2047	2040	2077	1977	
1790	0	2072	2050	2097	1965	
1791	0	2033	2032	2064	2032	
1792	0	2029	2084	2024	2077	
1793	0	2073	2050	2013	2158	
1794	0	2027	2014	2049	2240	
1795	0	2022	1992	2122	2183	
1796	0	2057	1948	2076	2134	
1797	0	2040	1965	2055	2109	
1798	0	2053	1998	2112	2128	
1799	0	2066	2032	2163	2099	
1800	0	2103	2066	2140	2018	
1801	0	2141	2078	2122	1931	
1802	0	2149	2123	2140	1959	
1803	0	2120	2127	2111	2015	
1804	0	2036	2087	2039	1998	
1805	0	1945	1990	1997	1993	
1806	0	1991	2015	2036	1970	
1807	0	2094	2023	2068	2040	
1808	0	2092	2061	2041	2001	
1809	0	2069	2024	2026	2020	
1810	0	2046	1996	1993	2020	
1811	0	2013	1997	1974	1999	
1812	0	1995	2051	2011	1989	
1813	0	2027	2091	2032	2064	
1814	0	2042	2097	2060	2042	
1815	0	1989	2037	2039	2078	
1816	0	1960	1987	2001	2150	
1817	0	2033	2032	2007	2155	
1818	0	2159	2085	1993	2158	
1819	0	2224	2081	2014	2127	
1820	0	2228	2062	2052	2128	
1821	0	2015	2135	2047	2062	
1822	0	1910	2135	2019	1919	
1823	0	1961	2074	1959	1908	
1824	0	2023	2040	1953	1972	
1825	0	2093	2065	2008	2008	
1826	0	2090	2047	2074	2045	
1827	0	1908	1976	2041	2130	
1828	0	1939	2000	2121	2118	
1829	0	2069	2042	2206	2038	
1830	0	2027	2040	2175	2005	
1831	0	2022	2044	2103	1975	
1832	0	2030	2040	2036	2032	
1833	0	1994	2059	2011	2069	
1834	0	2024	2074	2020	2056	
1835	0	2030	1957	2021	2063	
1836	0	2055	2023	2043	2038	
1837	0	2070	2174	2050	2054	
1838	0	2152	2120	2029	2030	
1839	0	2211	2030	2102	2002	
1840	0	2097	1969	2101	2011	
1841	0	2004	1906	2144	2009	
1842	0	2120	2016	2214	2034	
1843	0	2143	2128	2172	2090	
1844	0	2179	2182	2191	2099	
1845	0	2120	2160	2133	2104	
1846	0	2007	2080	2000	2133	
1847	0	1900	2041	1866	2160	
1848	0	1893	2026	1868	2168	
1849	0	1932	2017	1910	2125	
1850	0	1965	2015	1885	2061	
1851	0	1997	2030	1878	2005	
1852	0	2040	2028	1938	1993	
1853	0	2081	2007	1959	2011	
1854	0	2043	2030	1973	1958	
1855	0	2043	2050	2053	1931	
1856	0	2059	2036	2077	1922	
1857	0	1978	2014	2077	1947	
1858	0	2042	2009	2079	2018	
1859	0	2098	2007	2118	2064	
1860	0	2076	2069	2188	2070	
1861	0	2089	2191	2192	2084	
1862	0	2078	2128	2134	2048	
1863	0	2086	2019	2128	2031	
1864	0	2104	2016	2114	2084	
1865	0	2099	2028	2124	2053	
1866	0	2124	2068	2136	2016	
1867	0	2150	2105	2107	2110	
1868	0	2104	2082	2057	2185	
1869	0	2162	2058	1974	2096	
1870	0	2145	2039	1997	2113	
1871	0	2116	2020	2054	2123	
1872	0	2022	1983	2017	2063	
1873	0	1921	2005	1977	2053	
1874	0	1955	1993	1981	2109	
1875	0	1977	1991	1979	2082	
1876	0	1971	1966	1982	2068	
1877	0	1988	2028	1995	2023	
1878	0	2013	2084	2023	1951	
1879	0	2024	2144	2017	1875	
1880	0	2055	2108	2040	1849	
1881	0	2040	2020	2013	1933	
1882	0	1975	1963	1999	1965	
1883	0	1951	1992	2001	1925	
1884	0	2052	2029	1956	1969	
1885	0	2106	1995	2004	2085	
1886	0	2071	2063	2091	2205	
1887	0	2113	2163	2192	2144	
1888	0	1973	2066	2184	2204	
1889	0	1953	2045	2160	2227	
1890	0	2115	2078	2196	2148	
1891	0	2184	2189	2242	2038	
1892	0	2182	2171	2131	1987	
1893	0	2102	2073	1941	1949	
1894	0	2001	2052	1897	2033	
1895	0	2016	2101	1901	2146	
1896	0	2000	2070	1913	2086	
1897	0	2023	2075	1897	2013	
1898	0	2079	2049	1900	1994	
1899	0	1941	1955	1985	2030	
1900	0	1908	1876	2096	2092	
1901	0	2066	1964	2167	2002	
1902	0	2176	2095	2267	1992	
1903	0	2119	2174	2185	1995	
1904	0	2101	2173	2120	1922	
1905	0	2087	2122	2091	1946	
1906	0	2052	2060	2050	2010	
1907	0	2033	1927	2104	2055	
1908	0	2010	1894	2091	2107	
1909	0	2007	1914	2032	2154	
1910	0	2057	1984	1990	2161	
1911	0	2046	2044	2000	2129	
1912	0	2048	2097	2043	2141	
1913	0	2051	2095	2074	2187	
1914	0	2074	2077	2073	2099	
1915	0	2098	2111	2060	2016	
1916	0	2029	2121	1999	1976	
1917	0	2057	2159	2024	1895	
1918	0	2059	2084	2035	1995	
1919	0	2064	2030	2000	2103	
1920	0	2024	2000	1990	2151	
1921	0	2005	2012	2003	2057	
1922	0	1998	1995	1981	1991	
1923	0	1991	1997	1960	1973	
1924	0	1978	2015	1910	1964	
1925	0	1946	2034	1857	1990	
1926	0	2008	2073	1919	2065	
1927	0	1973	2078	1998	1988	
1928	0	2062	2094	2026	2005	
1929	0	2193	2023	2048	2074	
1930	0	2125	1967	2122	2180	
1931	0	2054	1951	2223	2211	
1932	0	1925	1975	2249	2129	
1933	0	2043	2045	2305	2050	
1934	0	2236	2068	2270	2003	
1935	0	2245	2064	2169	1944	
1936	0	2174	2043	2092	2011	
1937	0	2009	2077	2088	2043	
1938	0	2074	2117	2144	2001	
1939	0	2090	2026	2125	2093	
1940	0	1974	1923	2032	2147	
1941	0	1950	1973	2022	2163	
1942	0	1973	2023	1962	2299	
1943	0	2068	2105	1975	2173	
1944	0	2138	2179	1929	2001	
1945	0	2130	2205	1938	1933	
1946	0	2097	2204	1958	1844	
1947	0	2068	2238	1986	1790	
1948	0	2010	2152	1996	1846	
1949	0	1994	2069	1996	1939	
1950	0	1951	2013	1994	2005	
1951	0	1991	1993	2028	2009	
1952	0	2001	1935	2041	2047	
1953	0	2012	1932	2015	2077	
1954	0	2078	1968	2064	2084	
1955	0	2076	1971	2066	2211	
1956	0	2088	1997	2091	2248	
1957	0	2102	2044	2055	2121	
1958	0	1998	2047	2055	2032	
1959	0	2029	2067	2059	2040	
1960	0	2097	2056	2025	1981	
1961	0	2024	2001	2046	2000	
1962	0	2055	2029	2131	2056	
1963	0	2043	2070	2117	2079	
1964	0	1924	2055	2095	2088	
1965	0	1999	2026	2046	2091	
1966	0	2095	2074	2010	2028	
1967	0	2135	2053	1992	2003	
1968	0	2092	2065	1993	1991	
1969	0	1898	2023	1846	1997	
1970	0	1798	2039	1803	1949	
1971	0	1905	2085	1887	1951	
1972	0	1943	2079	2019	1979	
1973	0	2071	2033	2156	2077	
1974	0	2149	2034	2261	2091	
1975	0	2232	2022	2265	2059	
1976	0	2232	1972	2204	2132	
1977	0	2138	2026	2181	2158	
1978	0	2147	2095	2165	2167	
1979	0	2200	2115	2189	2141	
1980	0	2169	2054	2165	2079	
1981	0	2095	2096	2093	2056	
1982	0	2092	2101	2058	1915	
1983	0	1986	2020	2034	1952	
1984	0	1911	1997	1979	2182	
1985	0	1923	2091	1916	2172	
1986	0	1953	2078	1961	2148	
1987	0	1942	2059	1984	2090	
1988	0	1998	2031	2029	1920	
1989	0	2047	1957	1983	1915	
1990	0	2154	2060	2056	2028	
1991	0	2186	2098	2005	2090	
1992	0	2171	2106	1937	2004	
1993	0	2091	2092	2022	1967	
1994	0	2084	2159	2102	2019	
1995	0	2046	2089	2060	2040	
1996	0	2008	2036	1984	2017	
1997	0	1969	2028	1947	2074	
1998	0	1995	2034	2002	2144	
1999	0	1998	1967	1999	2098	
2000	0	1975	1959	2037	2060	
2001	0	2010	1990	2116	2086	
2002	0	2084	2008	2098	2093	
2003	0	2005	2023	2095	1957	
2004	0	2074	2029	2174	1952	
2005	0	2186	2073	2183	2070	
2006	0	2100	2067	2081	2116	
2007	0	1973	2091	1981	1974	
2008	0	2004	2145	1965	1909	
2009	0	2034	2138	1934	1974	
2010	0	2011	2059	1951	2045	
2011	0	1986	2005	1963	2063	
2012	0	2041	1985	2017	2014	
2013	0	2070	1998	2083	1978	
2014	0	2056	2012	2114	2075	
2015	0	2060	2058	2142	2152	
2016	0	1956	2034	2092	2183	
2017	0	1943	2008	2047	2162	
2018	0	2009	1995	2041	2090	
2019	0	2190	2012	2099	2050	
2020	0	2269	2086	2219	2011	
2021	0	2270	2154	2232	2011	
2022	0	2151	2135	2104	2040	
2023	0	2005	2096	2024	2056	
2024	0	1902	2052	1988	1988	
2025	0	1950	2031	2025	1989	
2026	0	2008	2043	2071	1991	
2027	0	2003	2014	2034	2052	
2028	0	2015	2025	1981	2063	
2029	0	2054	2089	2003	2084	
2030	0	2038	2095	2013	2084	
2031	0	2013	2010	1961	2094	
2032	0	2086	2003	1979	2100	
2033	0	2108	2005	2001	2092	
2034	0	2054	2023	2043	2040	
2035	0	1922	2037	2062	2021	
2036	0	1955	2073	2091	2017	
2037	0	2081	2115	2080	2024	
2038	0	2058	2033	1964	2049	
2039	0	1989	1961	1917	2040	
2040	0	2099	1985	2062	2025	
2041	0	2217	2061	2138	1985	
2042	0	2097	2101	2029	1947	
2043	0	1958	2133	1935	1976	
2044	0	2049	2094	2021	2019	
2045	0	2070	2023	2058	2010	
2046	0	2080	2004	2070	2057	
2047	0	2115	2011	2111	2125	
2048	0	2044	1985	2110	2111	
2049	0	1929	1994	2025	2105	
2050	0	1954	2032	2005	2153	
2051	0	1996	1904	2076	2195	
2052	0	2083	1837	2134	2108	
2053	0	2169	1981	2190	2051	
2054	0	2162	2134	2238	2121	
2055	0	2131	2304	2186	2083	
2056	0	2096	2378	2095	2024	
2057	0	2038	2322	2042	1982	
2058	0	2061	2206	2016	1906	
2059	0	2127	2102	1995	1882	
2060	0	2134	2034	1951	1940	
2061	0	2035	1985	1975	2006	
2062	0	1998	1950	1992	2067	
2063	0	2064	1981	2021	2145	
2064	0	2011	1964	1986	2158	
2065	0	1968	1968	2002	2087	
2066	0	1936	2022	1992	2046	
2067	0	1877	2030	1949	2118	
2068	0	1952	1965	1950	2171	
2069	0	2012	1950	1946	2118	
2070	0	2023	1969	1975	2077	
2071	0	2047	2046	1955	1983	
2072	0	2048	2069	1987	1948	
2073	0	2042	2140	2085	1942	
2074	0	2035	2174	2120	2016	
2075	0	2070	2159	2226	2044	
2076	0	2148	2146	2304	1977	
2077	0	2214	2096	2386	1982	
2078	0	2177	2076	2257	2025	
2079	0	2120	2002	2035	2046	
2080	0	2103	2020	1996	1961	
2081	0	2041	2078	1988	1926	
2082	0	2042	2052	1999	1971	
2083	0	2098	2051	2026	2080	
2084	0	2116	2058	2012	2109	
2085	0	2041	2037	1990	2096	
2086	0	2012	2042	2009	2085	
2087	0	2038	2058	2041	2076	
2088	0	2012	2023	2050	2087	
2089	0	2002	2024	2031	2061	
2090	0	1982	1984	1996	2098	
2091	0	1925	1948	1952	2082	
2092	0	1971	1969	1981	2067	
2093	0	2019	2025	1986	2032	
2094	0	2071	2082	1965	2018	
2095	0	2070	2064	2003	2060	
2096	0	1987	2064	1977	2111	
2097	0	1964	2042	2011	2106	
2098	0	2018	2056	2053	2048	
2099	0	2121	2019	2049	2051	
2100	0	2098	1999	2042	2070	
2101	0	2056	2022	2025	2034	
2102	0	2047	2011	2025	1999	
2103	0	1982	1894	2022	2140	
2104	0	1840	1813	1952	2173	
2105	0	1957	2015	2057	2060	
2106	0	2014	2222	2151	2025	
2107	0	1981	2157	2147	2129	
2108	0	2122	2178	2174	2051	
2109	0	2192	2186	2265	1970	
2110	0	2185	2164	2284	2023	
2111	0	2140	2144	2148	2096	
2112	0	2206	2121	2108	2005	
2113	0	2242	2112	2096	1990	
2114	0	2230	2105	2034	1950	
2115	0	2210	2074	1957	2053	
2116	0	2085	1994	1946	2020	
2117	0	1964	1998	1961	1918	
2118	0	2001	2067	2068	1982	
2119	0	2114	2093	2135	1997	
2120	0	2112	2002	2116	2007	
2121	0	1980	1915	2017	2043	
2122	0	1835	1926	1986	1964	
2123	0	1898	2000	1955	2028	
2124	0	1971	2063	1921	2136	
2125	0	1979	2074	1925	2184	
2126	0	2064	2178	2008	2122	
2127	0	2169	2156	2042	2052	
2128	0	2090	2047	2004	1945	
2129	0	1870	1980	1941	1954	
2130	0	1861	1991	1976	2058	
2131	0	1991	2037	2086	2170	
2132	0	2167	2072	2179	2158	
2133	0	2056	2008	2161	2167	
2134	0	1911	2008	2078	2108	
2135	0	1933	2100	1983	2055	
2136	0	2064	2142	2048	2013	
2137	0	2288	2174	2165	1986	
2138	0	2212	2116	2044	2007	
2139	0	2070	2069	2071	2071	
2140	0	2158	2049	2227	2057	
2141	0	2091	2012	2125	1999	
2142	0	2020	2033	2030	1966	
2143	0	2036	2050	2018	1969	
2144	0	2071	2067	1997	2006	
2145	0	2054	2016	1968	2096	
2146	0	2029	2029	1978	2078	
2147	0	2032	2046	2052	2030	
2148	0	2079	2061	2037	2001	
2149	0	2039	2015	2032	2056	
2150	0	2018	1993	2022	2128	
2151	0	2050	2023	2030	2133	
2152	0	2045	2021	2042	2108	
2153	0	2021	1985	2098	2140	
2154	0	2024	1960	2072	2143	
2155	0	2025	2028	2013	2106	
2156	0	2014	2054	1953	2096	
2157	0	1987	2044	1959	2042	
2158	0	1984	2027	1986	2024	
2159	0	2015	2011	2038	2015	
2160	0	2071	2028	2088	1949	
2161	0	2120	2016	2135	1942	
2162	0	2076	2009	2107	1955	
2163	0	2037	2022	2073	1952	
2164	0	2072	2058	2041	1948	
2165	0	2076	2037	2063	2068	
2166	0	2024	2042	2065	2019	
2167	0	1941	2064	2004	1972	
2168	0	1887	2054	1974	2062	
2169	0	2064	2088	2080	2008	
2170	0	2161	2050	2146	2081	
2171	0	2248	2110	2233	2177	
2172	0	2102	2169	2081	2152	
2173	0	2053	2170	2016	2059	
2174	0	2065	2175	1995	2000	
2175	0	2091	2142	1977	2058	
2176	0	2075	2088	1970	2048	
2177	0	2034	2001	1972	2076	
2178	0	1984	1948	1996	2049	
2179	0	1958	1917	2006	2113	
2180	0	1985	1969	2019	2084	
2181	0	2037	2043	2060	1997	
2182	0	2087	2040	2066	2054	
2183	0	2078	2009	2041	2142	
2184	0	2067	1931	2037	2140	
2185	0	2148	2058	2058	1942	
2186	0	2109	2112	2089	1883	
2187	0	2082	2169	2111	1958	
2188	0	2007	2135	2059	2093	
2189	0	1997	2081	2027	2128	
2190	0	1982	2015	2035	2128	
2191	0	2014	2007	2028	2060	
2192	0	2025	1999	2030	1993	
2193	0	2010	1989	2058	1967	
2194	0	2076	2028	2126	1976	
2195	0	2096	2032	2147	1953	
2196	0	2043	2060	2115	1981	
2197	0	1868	2084	2061	2169	
2198	0	1927	2120	2194	2154	
2199	0	2069	2173	2175	2107	
2200	0	2197	2044	2144	2185	
2201	0	2199	1993	2009	2094	
2202	0	2168	2062	1978	2001	
2203	0	2217	2085	2005	2074	
2204	0	2154	2033	1981	2123	
2205	0	2042	1998	2062	2046	
2206	0	2020	2036	2063	2006	
2207	0	1991	2078	1981	2027	
2208	0	1941	2003	1938	2013	
2209	0	1988	2026	1973	1977	
2210	0	2028	2037	2003	1999	
2211	0	2056	2020	1963	1984	
2212	0	1973	2035	1895	1962	
2213	0	1946	2024	1962	2044	
2214	0	1949	2035	1961	2097	
2215	0	1948	2055	1958	2089	
2216	0	1951	1994	1985	2041	
2217	0	1994	2020	1986	2023	
2218	0	2051	2023	2039	2004	
2219	0	2097	1962	2125	2047	
2220	0	2202	2000	2239	2040	
2221	0	2283	2104	2293	2007	
2222	0	2110	2040	2242	2069	
2223	0	1929	1976	2178	2145	
2224	0	1905	2089	2050	2152	
2225	0	2001	2196	2033	2157	
2226	0	2121	2108	1987	2105	
2227	0	2215	2121	2006	1961	
2228	0	2138	2101	2037	1846	
2229	0	2108	2137	2024	1884	
2230	0	2034	2088	1947	2027	
2231	0	2030	2056	2054	2070	
2232	0	2225	2094	2121	2079	
2233	0	2149	2062	2138	2172	
2234	0	2064	2122	2111	2123	
2235	0	2095	2108	2067	2070	
2236	0	2039	2036	2018	2029	
2237	0	1985	2009	1983	1988	
2238	0	1983	1987	2031	2017	
2239	0	1962	1941	2028	2023	
2240	0	1957	1936	2012	1992	
2241	0	2018	1941	1996	2005	
2242	0	1988	1922	1983	2068	
2243	0	1929	1887	1947	2012	
2244	0	1963	1918	1993	2086	
2245	0	1979	2014	1963	2104	
2246	0	2021	2124	1986	2174	
2247	0	2110	2126	2043	2148	
2248	0	2106	2112	2090	2037	
2249	0	2100	2132	2160	2034	
2250	0	2003	2216	2206	1989	
2251	0	2019	2219	2202	2059	
2252	0	2081	2172	2224	2007	
2253	0	2064	2112	2114	2027	
2254	0	2072	2023	2010	2100	
2255	0	2131	1993	1914	2094	
2256	0	2112	2024	1911	1986	
2257	0	2144	2049	1997	1919	
2258	0	2128	2011	1998	2023	
2259	0	1974	1928	1941	2133	
2260	0	1871	1899	1971	2106	
2261	0	1901	1967	2042	2042	
2262	0	1945	2067	2142	2036	
2263	0	2042	2089	2188	2034	
2264	0	2182	2150	2160	2012	
2265	0	2210	2171	2119	2057	
2266	0	2243	2175	2049	2036	
2267	0	2146	2098	1895	1945	
2268	0	1997	2005	1913	1991	
2269	0	1982	1973	2049	2028	
2270	0	2028	1976	2138	2116	
2271	0	2014	1941	2076	2241	
2272	0	2033	1903	2012	2300	
2273	0	2011	1935	1965	2286	
2274	0	2000	2017	2015	2075	
2275	0	2017	2091	2046	1972	
2276	0	2012	2090	2073	1963	
2277	0	1996	2041	2078	1981	
2278	0	1992	2022	2080	1957	
2279	0	2001	2015	2063	1962	
2280	0	2049	2095	2028	1870	
2281	0	2120	2183	2091	1765	
2282	0	2200	2247	2061	1806	
2283	0	2241	2222	2087	2030	
2284	0	2198	2106	2086	2180	
2285	0	2010	2021	2106	2222	
2286	0	2015	2001	2131	2197	
2287	0	2081	1945	2110	2111	
2288	0	2058	1964	2043	2070	
2289	0	1988	2004	1990	2094	
2290	0	1986	2030	1984	2081	
2291	0	2049	2058	2003	2050	
2292	0	2022	2051	1957	2042	
2293	0	1914	2056	1950	1975	
2294	0	1932	2055	1971	2015	
2295	0	1989	2026	2004	2109	
2296	0	2082	2045	2047	2122	
2297	0	2064	2005	2124	2097	
2298	0	2034	1960	2134	2104	
2299	0	1997	1935	2079	2080	
2300	0	2035	1995	2122	2080	
2301	0	2151	2096	2139	2030	
2302	0	2142	2143	2132	1946	
2303	0	2078	2144	2069	1965	
2304	0	1963	2117	2013	1984	
2305	0	2020	2108	1921	2001	
2306	0	2096	2130	1972	2022	
2307	0	2075	2078	1989	2020	
2308	0	2030	2062	2044	2048	
2309	0	2072	2056	2047	2138	
2310	0	2113	2038	1955	2104	
2311	0	2113	2003	2027	2049	
2312	0	2122	1997	2099	2088	
2313	0	2090	2056	2074	1988	
2314	0	1988	2074	2028	1972	
2315	0	1891	1958	2028	2051	
2316	0	1916	1905	2115	2046	
2317	0	1998	1930	2115	2051	
2318	0	2127	2062	2081	2037	
2319	0	2158	2151	2099	2034	
2320	0	2093	2103	2130	2070	
2321	0	2092	2092	2096	2113	
2322	0	2036	2073	2049	2101	
2323	0	2010	2108	2026	2046	
2324	0	1997	2120	1978	2058	
2325	0	1973	1996	1924	2098	
2326	0	2090	1940	1994	2091	
2327	0	2163	1962	2059	2100	
2328	0	2169	2022	2065	2050	
2329	0	2075	2011	2010	2070	
2330	0	1914	1968	1984	2070	
2331	0	1859	2023	2001	2141	
2332	0	2043	2047	2145	2184	
2333	0	2211	2028	2135	2043	
2334	0	2151	2088	2092	1912	
2335	0	2111	2150	2119	1894	
2336	0	2057	2127	2199	1962	
2337	0	2094	2137	2131	1926	
2338	0	2095	2195	2028	1831	
2339	0	2027	2167	1931	1886	
2340	0	1990	2089	1917	2062	
2341	0	2015	2064	1908	2102	
2342	0	2060	2088	1964	2082	
2343	0	2050	2050	2046	2097	
2344	0	1987	2013	2017	2057	
2345	0	1799	1984	1946	2030	
2346	0	1887	1911	2037	2035	
2347	0	2068	1875	2147	2051	
2348	0	2167	1902	2145	2117	
2349	0	2146	1963	2086	2102	
2350	0	2157	2049	2109	2079	
2351	0	2117	2116	2046	2102	
2352	0	1975	2098	1971	2116	
2353	0	1998	2072	1985	2137	
2354	0	1902	2079	1978	2121	
2355	0	1953	2068	2067	2062	
2356	0	2095	2119	2116	1988	
2357	0	2157	2106	2181	1968	
2358	0	2057	1991	2146	2048	
2359	0	1954	2041	2081	2033	
2360	0	1994	2096	2034	2029	
2361	0	2073	2087	2066	2008	
2362	0	2106	2038	2143	2041	
2363	0	2109	2036	2120	2051	
2364	0	2077	1953	2027	2054	
2365	0	2102	1980	2035	2079	
2366	0	2090	2107	2039	2070	
2367	0	2016	2093	2018	2108	
2368	0	2054	2117	1936	2110	
2369	0	2066	2076	1925	2049	
2370	0	2041	2036	1917	1966	
2371	0	2050	1998	1947	1915	
2372	0	2061	1941	2014	2003	
2373	0	1966	1883	1988	2065	
2374	0	1953	1946	2011	1987	
2375	0	1993	2007	2036	1992	
2376	0	2046	2077	2065	2066	
2377	0	2259	2129	2160	2139	
2378	0	2290	2216	2187	2110	
2379	0	2215	2312	2149	2005	
2380	0	2048	2273	2111	2025	
2381	0	1974	2157	2072	2072	
2382	0	2031	2076	2065	2099	
2383	0	2050	1972	2079	2132	
2384	0	2022	1930	2057	2103	
2385	0	1963	1903	1995	2106	
2386	0	1994	1987	1984	2160	
2387	0	2015	2028	2000	2134	
2388	0	1935	2023	1896	2067	
2389	0	1830	2011	1868	2039	
2390	0	1874	1952	1969	2035	
2391	0	2050	1958	2146	2025	
2392	0	2223	2011	2272	1958	
2393	0	2158	2044	2272	2011	
2394	0	2097	2081	2153	1943	
2395	0	2102	2110	2138	1870	
2396	0	2174	2085	2098	1837	
2397	0	2186	2053	2143	1921	
2398	0	2188	2086	2093	1990	
2399	0	2139	2137	2021	2098	
2400	0	2041	2212	1963	2141	
2401	0	1983	2163	1957	2077	
2402	0	2008	2059	1986	2082	
2403	0	2039	2024	2019	2122	
2404	0	1920	1993	1963	2242	
2405	0	1889	1918	1955	2244	
2406	0	1939	1938	2005	2105	
2407	0	1902	1986	1993	1956	
2408	0	2016	2071	1981	2002	
2409	0	2104	2023	2016	2111	
2410	0	2076	2014	2038	2056	
2411	0	1992	2066	2019	2040	
2412	0	1946	2076	2017	1980	
2413	0	1949	2028	1989	2028	
2414	0	2084	2003	2140	2092	
2415	0	2130	2057	2129	2038	
2416	0	2124	2208	2095	1991	
2417	0	2135	2273	2049	1829	
2418	0	2129	2149	2030	1816	
2419	0	2056	2006	2078	1954	
2420	0	2013	1958	2139	2064	
2421	0	2045	2022	2113	2133	
2422	0	2115	2012	2054	2173	
2423	0	2130	2031	2012	2072	
2424	0	2069	2021	1938	2053	
2425	0	2010	1985	1931	2136	
2426	0	2018	2028	1986	2098	
2427	0	2047	2033	2112	2086	
2428	0	2100	2022	2174	2131	
2429	0	2067	2026	2112	2112	
2430	0	2043	2032	2027	2065	
2431	0	2038	2041	2028	2052	
2432	0	1996	2036	2046	2074	
2433	0	2032	2062	2107	2036	
2434	0	2002	2009	2058	2073	
2435	0	2046	1958	2039	2086	
2436	0	2117	2027	2069	2033	
2437	0	2120	2097	2067	2007	
2438	0	2122	2026	2126	2081	
2439	0	2049	2023	2086	2061	
2440	0	2014	2041	2070	2033	
2441	0	2050	1989	2082	2061	
2442	0	2065	1984	2067	2090	
2443	0	2134	2071	1999	2098	
2444	0	2079	2146	2023	2048	
2445	0	2010	2209	2013	1885	
2446	0	2036	2217	2045	1842	
2447	0	2036	2117	2033	1910	
2448	0	2018	2012	2015	2066	
2449	0	1970	1987	2045	2169	
2450	0	2011	1971	2048	2117	
2451	0	2000	2007	1966	2035	
2452	0	1995	2112	1933	2006	
2453	0	1992	2135	1938	1970	
2454	0	2012	2136	1969	1933	
2455	0	2068	2094	2025	1884	
2456	0	2101	2043	2075	1989	
2457	0	2100	1954	2104	2088	
2458	0	2107	1923	2142	2148	
2459	0	2178	2063	2208	2121	
2460	0	2211	2189	2180	2170	
2461	0	2071	2104	2071	2196	
2462	0	1988	2004	2032	2150	
2463	0	1951	1976	2003	2080	
2464	0	1954	2042	2021	2016	
2465	0	1994	2062	1997	2018	
2466	0	1951	2058	1994	2010	
2467	0	1998	2078	2008	1983	
2468	0	2060	1982	2011	2010	
2469	0	2045	1905	1997	2071	
2470	0	2076	1957	2017	2062	
2471	0	2109	2035	2055	2052	
2472	0	2163	2109	2082	2070	
2473	0	2150	2092	2068	2088	
2474	0	1969	2043	1975	2099	
2475	0	1898	2005	1936	2053	
2476	0	1890	1953	1999	2063	
2477	0	1987	1929	2142	2069	
2478	0	2053	2049	2156	2036	
2479	0	2093	2148	2113	2013	
2480	0	2186	2217	2108	2047	
2481	0	2246	2160	2086	2093	
2482	0	2158	2127	2132	2015	
2483	0	2079	2110	2123	1962	
2484	0	2063	2127	2104	1912	
2485	0	2010	2108	2061	1920	
2486	0	2032	2033	2068	2057	
2487	0	2023	2017	2062	2079	
2488	0	1996	1991	2005	2039	
2489	0	1997	1950	1967	2047	
2490	0	1966	1926	1920	2123	
2491	0	1980	1922	1912	2212	
2492	0	1968	1870	1959	2208	
2493	0	1970	1887	1947	2233	
2494	0	1974	1951	2011	2151	
2495	0	2006	2069	2104	1951	
2496	0	2048	2160	2113	1858	
2497	0	2041	2180	2096	1824	
2498	0	1978	2207	2075	1957	
2499	0	2080	2172	2085	2030	
2500	0	2150	2243	2098	1864	
2501	0	2150	2218	2005	1928	
2502	0	2144	2127	2012	2054	
2503	0	2179	2072	2165	2035	
2504	0	2280	2044	2228	2136	
2505	0	2256	2039	2163	2113	
2506	0	2102	2055	2029	2087	
2507	0	1985	2009	2051	2092	
2508	0	1956	1900	2030	2150	
2509	0	1971	2007	1986	2108	
2510	0	2038	2070	1967	2105	
2511	0	2062	1997	1932	2096	
2512	0	2029	1982	1828	2041	
2513	0	1993	1963	1829	2001	
2514	0	2040	1907	1948	1960	
2515	0	2060	1845	2030	2017	
2516	0	1969	1885	2048	2106	
2517	0	1893	1912	2099	2104	
2518	0	1808	2042	2128	2150	
2519	0	1832	2128	2133	2184	
2520	0	2058	2138	2208	2142	
2521	0	2218	2203	2231	2022	
2522	0	2250	2160	2222	2008	
2523	0	2156	2001	2189	2023	
2524	0	2109	2006	2136	2107	
2525	0	2080	2081	2054	2123	
2526	0	2059	2142	2065	2074	
2527	0	2099	2181	2063	1977	
2528	0	2148	2197	2040	1886	
2529	0	2147	2219	1999	1894	
2530	0	2131	2170	2032	1862	
2531	0	2042	2103	2052	1901	
2532	0	1977	2020	1994	2008	
2533	0	1890	1942	1894	2088	
2534	0	1864	1927	1887	2091	
2535	0	1986	2009	1980	2044	
2536	0	2044	2145	2018	2058	
2537	0	1978	2106	1977	2082	
2538	0	1957	1940	1924	2153	
2539	0	1929	1874	1915	2218	
2540	0	2013	1883	1989	2180	
2541	0	2105	2017	2100	2147	
2542	0	2036	2070	2054	2086	
2543	0	1961	2051	1997	1953	
2544	0	2041	2023	2034	1923	
2545	0	2088	2031	2102	1940	
2546	0	2187	2083	2162	1961	
2547	0	2302	2114	2169	2041	
2548	0	2260	2121	2256	2012	
2549	0	2230	2111	2271	1963	
2550	0	2135	2107	2123	2068	
2551	0	2107	2083	2046	2163	
2552	0	2020	2014	2091	2134	
2553	0	1919	1972	2117	2097	
2554	0	1977	1997	2085	2093	
2555	0	2028	2018	2027	2041	
2556	0	2030	2019	2012	2015	
2557	0	2015	2037	1982	2029	
2558	0	2007	2075	2014	1951	
2559	0	2000	2084	1987	1932	
2560	0	1999	1998	1974	2093	
2561	0	2022	1944	1993	2175	
2562	0	2073	2011	1983	2128	
2563	0	2133	2073	1934	2058	
2564	0	2012	2078	1925	2030	
2565	0	1951	2046	1927	2046	
2566	0	1860	1990	1935	2135	
2567	0	1955	2050	2014	2151	
2568	0	1986	2062	2026	2042	
2569	0	1859	2014	2020	2004	
2570	0	1878	1965	2080	2056	
2571	0	2039	2005	2108	2066	
2572	0	2223	2072	2291	2091	
2573	0	2326	2072	2333	2139	
2574	0	2409	2125	2249	2076	
2575	0	2268	2168	2142	2025	
2576	0	2129	2060	2026	2020	
2577	0	2065	2021	1981	1936	
2578	0	2047	2061	2003	1778	
2579	0	1929	2068	1956	1761	
2580	0	1873	2114	1952	1833	
2581	0	2008	2198	2006	2002	
2582	0	2056	2179	2014	2168	
2583	0	2047	2114	2006	2168	
2584	0	2044	2094	1998	2111	
2585	0	2104	2086	2040	2087	
2586	0	2080	2038	2017	2069	
2587	0	2022	2015	2005	2097	
2588	0	1984	1988	2040	2109	
2589	0	1915	1994	2031	2059	
2590	0	1890	1944	2040	2091	
2591	0	1979	1968	2032	2081	
2592	0	2071	2016	2059	2099	
2593	0	2121	2001	2065	2119	
2594	0	2057	1882	2101	2104	
2595	0	2089	1886	2150	2031	
2596	0	2115	1985	2084	2055	
2597	0	2160	2096	2042	1989	
2598	0	2141	2078	1953	2005	
2599	0	2100	2163	2043	2062	
2600	0	2068	2196	2062	2096	
2601	0	1988	2085	2042	2102	
2602	0	1975	2064	2092	2094	
2603	0	2024	2056	2158	2080	
2604	0	2011	2071	2096	2080	
2605	0	2030	2043	2060	2044	
2606	0	2074	2081	2049	1992	
2607	0	2080	2135	2082	1954	
2608	0	2078	2060	2079	1946	
2609	0	2096	2037	2067	1965	
2610	0	2112	2061	2082	1989	
2611	0	2099	2084	2081	2012	
2612	0	2040	2033	2045	2043	
2613	0	1967	1957	2024	2073	
2614	0	1982	2042	1986	2070	
2615	0	2037	2089	1981	2073	
2616	0	2045	2080	1975	2049	
2617	0	2022	2060	1988	2077	
2618	0	2032	2066	2004	2074	
2619	0	2021	2036	2020	2080	
2620	0	1995	2004	2016	2092	
2621	0	1984	1995	2032	2093	
2622	0	2024	1994	2036	2099	
2623	0	2031	1981	2062	2095	
2624	0	2088	1986	2056	2100	
2625	0	2113	2018	2021	2097	
2626	0	2084	2055	1985	2039	
2627	0	2045	2044	1993	1966	
2628	0	2065	2087	2036	1919	
2629	0	2123	2102	2068	1928	
2630	0	2116	2118	2058	1912	
2631	0	2035	2080	2067	1944	
2632	0	2072	2049	2164	2089	
2633	0	2153	1973	2123	2257	
2634	0	2133	2060	2108	2169	
2635	0	2074	2123	2099	2045	
2636	0	1968	2066	2102	2005	
2637	0	1916	2041	2144	2026	
2638	0	1848	2021	2051	1977	
2639	0	1879	2062	2010	2004	
2640	0	1981	2084	2012	2013	
2641	0	2074	2073	2050	2066	
2642	0	2081	2094	2030	2108	
2643	0	2110	2097	1956	2095	
2644	0	2122	2097	1957	2045	
2645	0	2102	2090	1995	2075	
2646	0	2097	2056	2086	2082	
2647	0	2145	1994	2122	2112	
2648	0	2048	1970	2033	2101	
2649	0	2021	1988	2022	2018	
2650	0	2088	1979	2068	1962	
2651	0	2186	2037	2085	1996	
2652	0	2123	2007	2022	2043	
2653	0	2034	1953	2033	2205	
2654	0	2020	1968	2078	2289	
2655	0	1987	1984	2074	2127	
2656	0	1876	2020	2049	1958	
2657	0	1737	2046	2001	2005	
2658	0	1919	2028	2056	2059	
2659	0	2069	2058	2024	1943	
2660	0	2142	2118	2037	1895	
2661	0	2178	2170	2041	1911	
2662	0	2226	2195	2015	1910	
2663	0	2262	2213	2025	2062	
2664	0	2159	2143	2042	2134	
2665	0	2050	2078	2109	2093	
2666	0	1963	2003	2136	2050	
2667	0	1898	2052	2099	2012	
2668	0	1909	2130	2069	2094	
2669	0	2016	2057	2077	2138	
2670	0	2160	1984	2039	2140	
2671	0	2140	1934	1989	2109	
2672	0	2094	1906	2019	2068	
2673	0	1999	1859	1997	2006	
2674	0	2033	1899	2016	2025	
2675	0	2092	1997	2071	1941	
2676	0	2105	2155	2022	1854	
2677	0	1940	2174	1953	1854	
2678	0	1912	2174	1972	1940	
2679	0	1956	2160	1990	2014	
2680	0	2035	2181	2012	1974	
2681	0	2018	2165	2012	2135	
2682	0	2020	2060	2108	2296	
2683	0	1999	1940	2121	2302	
2684	0	2055	1988	2140	2171	
2685	0	2121	2081	2162	2086	
2686	0	2139	2079	2108	2069	
2687	0	2105	2054	2081	2014	
2688	0	2131	2099	2101	1916	
2689	0	2095	2104	2090	1947	
2690	0	2110	2035	2020	2086	
2691	0	2146	2019	1973	2064	
2692	0	2192	1993	2073	2039	
2693	0	2226	2051	2083	2015	
2694	0	2131	1995	2047	2026	
2695	0	1987	1926	1942	2076	
2696	0	1932	1999	1934	2048	
2697	0	1938	2064	1978	2017	
2698	0	1907	2023	2022	2042	
2699	0	1983	1992	2066	2090	
2700	0	2015	2028	2076	2012	
2701	0	1959	2007	2108	2067	
2702	0	1945	2024	2133	2132	
2703	0	1950	2048	2124	2053	
2704	0	1967	2038	2045	2026	
2705	0	1956	1984	2000	2039	
2706	0	2064	2045	2056	1972	
2707	0	2153	2125	2075	2046	
2708	0	2155	2152	1967	2158	
2709	0	2159	2149	1989	2156	
2710	0	2206	2148	2042	2040	
2711	0	2139	2140	2040	1889	
2712	0	2034	2063	2058	1949	
2713	0	1934	1912	2056	1948	
2714	0	1810	1860	2030	2083	
2715	0	1900	1966	2078	2247	
2716	0	2094	2073	2117	2178	
2717	0	2268	2090	2161	1997	
2718	0	2288	2170	2139	1921	
2719	0	2172	2057	2002	1928	
2720	0	2105	1994	1979	1975	
2721	0	1998	2041	1987	2013	
2722	0	2026	2111	2017	2098	
2723	0	1974	2078	1976	2173	
2724	0	1857	1973	2048	2165	
2725	0	1998	2088	2119	2066	
2726	0	2059	2161	2058	1987	
2727	0	2046	2091	1973	1981	
2728	0	2015	2064	2003	2058	
2729	0	2067	2063	2105	2112	
2730	0	2041	2040	2087	2132	
2731	0	2020	2072	2041	2104	
2732	0	2028	2058	1999	2083	
2733	0	2040	2012	1983	2139	
2734	0	2050	2006	2022	2042	
2735	0	1997	1980	2047	2000	
2736	0	1933	1967	1993	1966	
2737	0	1928	1959	1990	1953	
2738	0	2053	2021	2070	1990	
2739	0	2196	2104	2100	1996	
2740	0	2159	2105	2028	1997	
2741	0	2119	2065	2003	2009	
2742	0	2135	2074	2131	2091	
2743	0	2168	2089	2161	2091	
2744	0	2057	2099	2182	2069	
2745	0	2040	2112	2168	2093	
2746	0	2108	2075	2130	2081	
2747	0	2121	2104	2090	2032	
2748	0	2091	2055	2029	2046	
2749	0	2038	1947	2025	2134	
2750	0	2004	1925	2040	2107	
2751	0	2031	1976	2057	2105	
2752	0	2043	1994	2026	2142	
2753	0	2026	1999	2001	2068	
2754	0	2040	2044	1998	1956	
2755	0	2033	2048	1982	1922	
2756	0	2077	2021	2022	1898	
2757	0	2050	1950	2002	1927	
2758	0	2010	1979	1950	2066	
2759	0	1910	2115	1933	2132	
2760	0	1796	2142	1935	2158	
2761	0	1834	2104	1971	2117	
2762	0	2026	2103	2097	2040	
2763	0	2238	2104	2187	1914	
2764	0	2240	2171	2142	1840	
2765	0	2117	2142	2074	1941	
2766	0	2063	2143	2007	2052	
2767	0	2005	2108	2014	2129	
2768	0	2025	2028	2055	2108	
2769	0	2105	2032	2071	2134	
2770	0	2154	1977	2127	2182	
2771	0	2199	1997	2221	2089	
2772	0	2159	2011	2166	2049	
2773	0	2059	2024	2088	2075	
2774	0	1939	2017	2032	2070	
2775	0	1921	2059	2046	2069	
2776	0	1963	2117	2034	1975	
2777	0	1992	2050	1979	1990	
2778	0	2000	2013	1955	1958	
2779	0	2007	2044	1940	1904	
2780	0	1955	1987	1911	1972	
2781	0	1947	2012	1903	2036	
2782	0	1959	1984	1987	2171	
2783	0	2017	1977	2025	2180	
2784	0	2067	2045	2062	2104	
2785	0	2125	2073	2089	2066	
2786	0	2181	2131	2227	2013	
2787	0	2194	2180	2242	2044	
2788	0	2159	2158	2094	2043	
2789	0	2187	2075	2071	2025	
2790	0	2217	2039	2136	2047	
2791	0	2161	2039	2110	2084	
2792	0	2136	2029	2063	2077	
2793	0	2058	2031	1980	2078	
2794	0	2005	2011	1939	2163	
2795	0	2040	2001	1974	2116	
2796	0	1900	1984	1939	2059	
2797	0	1802	1960	1943	2034	
2798	0	1928	1956	2029	2025	
2799	0	1968	2020	2114	2040	
2800	0	2029	2067	2094	2038	
2801	0	2084	2077	2110	2050	
2802	0	1975	2013	2080	2125	
2803	0	1920	1963	2113	2124	
2804	0	2040	2011	2133	2041	
2805	0	2093	2001	1974	1972	
2806	0	2105	2051	2033	1975	
2807	0	2154	2180	2106	1914	
2808	0	2156	2230	2114	1923	
2809	0	2179	2234	2125	1995	
2810	0	2126	2230	2059	2030	
2811	0	2005	2149	1974	2000	
2812	0	1991	2042	1918	2095	
2813	0	1978	2004	1898	2146	
2814	0	1950	2047	1902	2144	
2815	0	2063	2003	1933	2062	
2816	0	2045	1980	1959	1970	
2817	0	2062	1980	2021	1967	
2818	0	1984	1998	2071	1931	
2819	0	2005	2030	2210	1942	
2820	0	2090	2090	2321	2101	
2821	0	2123	2121	2302	2179	
2822	0	2182	2104	2217	2200	
2823	0	2199	2024	2161	2088	
2824	0	2101	1963	2005	2025	
2825	0	1989	1951	1937	2140	
2826	0	1946	2004	1962	2186	
2827	0	2045	2022	2067	2135	
2828	0	2062	2079	2030	2014	
2829	0	2001	2036	1950	1973	
2830	0	2028	2093	1970	1928	
2831	0	2001	2111	1989	2011	
2832	0	1996	2043	2010	2076	
2833	0	2057	2042	1955	2071	
2834	0	2065	2039	1945	2099	
2835	0	2033	2022	1955	2082	
2836	0	2039	2031	1954	2064	
2837	0	1917	2044	1977	2014	
2838	0	1950	2060	2048	1942	
2839	0	2115	2153	2123	1918	
2840	0	2086	2126	2149	1995	
2841	0	2061	2071	2111	2069	
2842	0	2043	1984	2109	2044	
2843	0	2081	1939	2137	2073	
2844	0	2049	1982	2125	2054	
2845	0	2031	2103	2081	2056	
2846	0	2140	2115	2093	2026	
2847	0	2151	2090	2048	1912	
2848	0	2092	2040	2028	1972	
2849	0	2099	2046	2046	2037	
2850	0	2073	2045	2065	2125	
2851	0	2115	2064	2085	2236	
2852	0	2098	2077	2069	2156	
2853	0	2069	2067	2070	2022	
2854	0	2014	2042	1977	2109	
2855	0	1940	2005	1985	2147	
2856	0	1918	1923	1993	2125	
2857	0	1915	1889	2033	2035	
2858	0	1863	1968	2040	1969	
2859	0	2023	2086	2132	2034	
2860	0	2124	2126	2131	2005	
2861	0	2111	2151	2048	2043	
2862	0	2153	2096	2050	2073	
2863	0	2158	2062	2116	2043	
2864	0	2147	2082	2132	2069	
2865	0	2117	2075	2087	2088	
2866	0	2056	2026	2036	2060	
2867	0	2040	2109	1995	1992	
2868	0	2055	2196	1993	1965	
2869	0	2031	2075	1979	1980	
2870	0	2068	2017	1989	1960	
2871	0	2064	1973	1960	1999	
2872	0	2049	1972	1931	2051	
2873	0	1970	2021	1960	2071	
2874	0	1926	1984	2046	2146	
2875	0	1963	2023	2085	2189	
2876	0	2020	1987	2132	2125	
2877	0	2103	1924	2169	2012	
2878	0	2120	1962	2066	1874	
2879	0	2047	2011	1991	1861	
2880	0	2052	2049	2045	1995	
2881	0	2031	2128	2064	2080	
2882	0	1989	2129	2011	2077	
2883	0	1963	2120	2007	2062	
2884	0	2053	2078	2068	2047	
2885	0	2141	2075	2094	2050	
2886	0	2116	2109	2080	2156	
2887	0	2041	2126	1984	2154	
2888	0	1887	2100	1948	2106	
2889	0	1902	2115	2016	2057	
2890	0	2054	2105	2046	2018	
2891	0	2096	2061	1992	2000	
2892	0	2070	1987	2029	2052	
2893	0	2075	1994	2064	2060	
2894	0	2152	2014	2183	2086	
2895	0	2172	2012	2189	2059	
2896	0	2153	2013	2154	2003	
2897	0	2088	2035	2078	1989	
2898	0	2038	2058	2037	2002	
2899	0	2036	2078	2046	2017	
2900	0	2018	2037	2031	2065	
2901	0	1947	1997	1928	2130	
2902	0	1923	1976	1962	2105	
2903	0	1959	1948	1970	2057	
2904	0	2018	2039	2032	1957	
2905	0	2147	2055	2076	1901	
2906	0	2157	2075	2075	1941	
2907	0	2078	2028	2090	2150	
2908	0	2044	2003	2125	2132	
2909	0	2085	2036	2162	2084	
2910	0	2111	2109	2114	2039	
2911	0	2114	2197	2068	2023	
2912	0	2106	2136	2051	2216	
2913	0	2055	2109	2032	2181	
2914	0	1982	2089	1975	2186	
2915	0	1975	2114	1989	2104	
2916	0	1992	2078	1992	1970	
2917	0	1988	2082	2007	1970	
2918	0	2041	2054	1987	2038	
2919	0	2080	2000	2000	1954	
2920	0	2083	2003	2050	1886	
2921	0	2063	2004	2076	1859	
2922	0	1970	2011	2055	1864	
2923	0	2032	2105	2054	1952	
2924	0	2168	2134	2084	2051	
2925	0	2131	2031	1979	2114	
2926	0	2042	1978	2021	2158	
2927	0	1993	1947	2076	2157	
2928	0	1991	1986	2106	2112	
2929	0	2101	2038	2127	2050	
2930	0	2058	2071	2018	2012	
2931	0	1891	2031	1960	1988	
2932	0	1834	2036	1943	2035	
2933	0	2006	1987	1938	2109	
2934	0	2151	2050	2042	2142	
2935	0	2154	2079	2151	2216	
2936	0	2181	2137	2196	2165	
2937	0	2147	2121	2205	1992	
2938	0	2145	2061	2170	2002	
2939	0	2081	2022	2073	2047	
2940	0	2022	2040	2021	2029	
2941	0	2015	2070	2046	2019	
2942	0	2057	2082	2039	2005	
2943	0	2061	2038	2046	2046	
2944	0	2056	1977	2049	2045	
2945	0	2020	1936	2009	2067	
2946	0	1951	1969	1954	2090	
2947	0	1981	2082	1984	2064	
2948	0	2073	2149	2018	2043	
2949	0	2117	2173	2005	2010	
2950	0	2065	2118	1957	1964	
2951	0	1879	1988	1930	2051	
2952	0	1815	1918	1963	2105	
2953	0	1913	1859	2022	2090	
2954	0	2019	1856	2151	1993	
2955	0	2088	1961	2172	1964	
2956	0	2152	2015	2154	2054	
2957	0	2216	2088	2220	2062	
2958	0	2195	2165	2187	2092	
2959	0	2166	2227	2153	2115	
2960	0	2149	2238	2139	2122	
2961	0	2107	2215	2027	2084	
2962	0	2070	2181	1973	2039	
2963	0	2048	2151	1993	2022	
2964	0	2018	2068	1987	2038	
2965	0	2001	2028	2004	2039	
2966	0	2013	1978	1972	2064	
2967	0	1959	1962	1920	2029	
2968	0	1922	1959	1956	1990	
2969	0	1976	1947	2027	1998	
2970	0	2047	1974	2096	2011	
2971	0	2076	1959	2132	2012	
2972	0	2094	1922	2119	1969	
2973	0	2093	1958	2092	2013	
2974	0	2056	2028	1998	2126	
2975	0	2036	2085	1915	2074	
2976	0	1943	2077	1894	1959	
2977	0	2006	2155	2003	2025	
2978	0	2039	2191	2046	2080	
2979	0	2000	2098	2040	2116	
2980	0	2038	2068	2014	2059	
2981	0	2015	2006	2052	2064	
2982	0	1970	2018	2019	2015	
2983	0	2136	2110	2104	1994	
2984	0	2238	2180	2117	2051	
2985	0	2122	2100	2067	2098	
2986	0	1982	2096	2027	2006	
2987	0	1993	2093	2013	1957	
2988	0	2114	2055	2178	2083	
2989	0	2185	1930	2309	2181	
2990	0	2150	1954	2249	2060	
2991	0	1998	2013	2154	2035	
2992	0	2044	2066	2060	2140	
2993	0	2106	2092	1949	2147	
2994	0	2140	2096	2012	2142	
2995	0	2184	2055	2074	2061	
2996	0	2093	1989	2014	2038	
2997	0	1998	1963	1981	2002	
2998	0	1948	1939	1970	2007	
2999	0	1936	1964	1954	1984	
3000	0	1956	1992	1975	2059	
3001	0	2016	2054	2018	2051	
3002	0	2015	2178	2021	1926	
3003	0	2018	2103	2018	2000	
3004	0	2036	2076	2047	2019	
3005	0	2060	2104	2061	2011	
3006	0	2042	2126	2046	1922	
3007	0	1991	2073	2064	2010	
3008	0	2007	2050	2052	2105	
3009	0	2038	1999	2031	2076	
3010	0	2063	1936	2051	2097	
3011	0	2056	1876	2080	2155	
3012	0	2050	1878	2111	2231	
3013	0	2105	2043	2081	2126	
3014	0	2072	2159	2067	2007	
3015	0	2011	2173	2051	1936	
3016	0	2050	2127	2076	1935	
3017	0	2018	2058	2027	1968	
3018	0	2021	2101	2052	1988	
3019	0	2042	2127	2053	2022	
3020	0	2083	2108	2069	2044	
3021	0	2045	2091	2021	2044	
3022	0	1972	2031	1966	2134	
3023	0	2029	1963	2000	2146	
3024	0	2210	1989	2048	2119	
3025	0	2185	1994	2048	2162	
3026	0	2110	2027	2112	2112	
3027	0	2085	2125	2110	2015	
3028	0	2074	2168	2092	1992	
3029	0	2068	2139	2071	1977	
3030	0	2090	2045	1977	1952	
3031	0	2095	2011	2003	1967	
3032	0	2100	1969	2039	2032	
3033	0	2098	1975	2047	1991	
3034	0	1950	1998	1981	2006	
3035	0	1850	2039	1933	2078	
3036	0	1890	2098	1978	2172	
3037	0	1972	2008	1998	2158	
3038	0	2032	1978	2044	2095	
3039	0	2120	2036	2088	2026	
3040	0	2009	2071	2024	1998	
3041	0	1953	2139	2045	1953	
3042	0	2034	2114	2136	2020	
3043	0	2084	2069	2226	2078	
3044	0	2066	2020	2157	2078	
3045	0	2053	1969	2151	2105	
3046	0	2041	1974	2110	2067	
3047	0	2120	2071	2064	1984	
3048	0	2114	2086	2036	2066	
3049	0	2109	2059	2031	2098	
3050	0	2092	2065	2013	2007	
3051	0	2079	2032	2019	2065	
3052	0	2021	2003	1976	2050	
3053	0	2050	2032	2010	2015	
3054	0	2020	2062	2013	2026	
3055	0	1949	2077	1984	2159	
3056	0	1985	2060	1990	2167	
3057	0	2017	2051	2046	2183	
3058	0	2015	2034	2047	2102	
3059	0	2029	2054	2019	2008	
3060	0	2014	2057	1968	1989	
3061	0	1977	2014	1973	1998	
3062	0	1989	2013	2056	2002	
3063	0	2011	2019	2106	2016	
3064	0	2083	2021	2072	1989	
3065	0	2225	2039	2079	1945	
3066	0	2293	2030	2192	1936	
3067	0	2300	2059	2193	1933	
3068	0	2180	2052	2105	2019	
3069	0	1808	2047	1983	2020	
3070	0	1832	2049	2022	2110	
3071	0	2122	2148	2063	2167	
3072	0	2182	2153	2088	2149	
3073	0	2132	2064	2017	2058	
3074	0	2007	1980	1953	2002	
3075	0	2025	2008	1988	2067	
3076	0	1945	1974	1976	2210	
3077	0	1940	2026	2048	2132	
3078	0	2013	2108	2072	2072	
3079	0	2066	2147	2051	1981	
3080	0	2064	2089	2025	1905	
3081	0	2081	2039	2066	1902	
3082	0	2118	2048	2102	1957	
3083	0	2091	2048	2095	2000	
3084	0	2036	2092	2063	1999	
3085	0	1976	2089	2041	2037	
3086	0	1892	2047	2010	2087	
3087	0	1975	1971	2025	2204	
3088	0	2062	1893	2036	2225	
3089	0	2104	1936	2083	2167	
3090	0	2069	2019	2090	2191	
3091	0	2015	2056	1996	2078	
3092	0	2109	2138	2065	1971	
3093	0	2105	2146	2072	1984	
3094	0	2130	2152	2103	1949	
3095	0	2075	2098	2075	1929	
3096	0	2003	2054	2088	1959	
3097	0	2023	2076	2102	1965	
3098	0	2129	2086	2112	1960	
3099	0	2138	2073	2057	1952	
3100	0	2104	2070	2024	2115	
3101	0	2053	2138	1992	2155	
3102	0	2051	2106	1982	2029	
3103	0	2069	2064	1971	1965	
3104	0	2037	1992	1987	2049	
3105	0	1971	1903	1984	2144	
3106	0	1876	1878	2008	2130	
3107	0	1966	1975	2083	2098	
3108	0	2084	2027	2174	2097	
3109	0	2062	1984	2145	2179	
3110	0	2113	2005	2097	2087	
3111	0	2097	2026	1930	2008	
3112	0	1987	2028	1964	1991	
3113	0	1966	2089	1980	2007	
3114	0	1990	2114	2007	1988	
3115	0	2108	2084	2094	2008	
3116	0	2115	2041	2131	2041	
3117	0	2107	2040	2096	2021	
3118	0	2085	2055	2084	2032	
3119	0	2075	2162	2042	2041	
3120	0	2038	2184	2011	2103	
3121	0	2018	2129	1997	2032	
3122	0	2016	2079	1992	2031	
3123	0	2008	1981	1972	2125	
3124	0	2037	1988	2019	2115	
3125	0	2037	1979	2014	2074	
3126	0	1973	1956	1979	2067	
3127	0	1916	2045	1947	2037	
3128	0	1938	2128	1944	2048	
3129	0	2018	2089	2009	2133	
3130	0	2096	2082	2079	2105	
3131	0	2144	2070	2145	1978	
3132	0	2152	2031	2157	1996	
3133	0	2060	2015	2073	2060	
3134	0	1949	2037	2127	2030	
3135	0	2138	2014	2332	1972	
3136	0	2192	2069	2296	1946	
3137	0	2082	2029	2120	2081	
3138	0	2032	1984	2027	2084	
3139	0	2007	2039	1951	2016	
3140	0	2004	2055	1942	2023	
3141	0	2020	2047	1917	2011	
3142	0	2130	2076	1926	1967	
3143	0	2207	2100	2023	1912	
3144	0	2230	2085	2161	2028	
3145	0	2201	1983	2148	2184	
3146	0	2006	1933	2090	2194	
3147	0	1966	1964	2115	2118	
3148	0	1948	2010	2038	2086	
3149	0	1955	2070	1977	2063	
3150	0	2063	2152	1989	2158	
3151	0	2019	2157	1962	2077	
3152	0	1993	2122	2009	1973	
3153	0	1966	2051	2035	1957	
3154	0	1934	2022	2032	2014	
3155	0	1962	2045	2030	2120	
3156	0	2032	2032	2006	2108	
3157	0	2071	2018	1977	2058	
3158	0	2097	2024	2025	1961	
3159	0	2039	2062	2023	1974	
3160	0	1980	2021	2077	2050	
3161	0	2059	1978	2180	2045	
3162	0	2125	1993	2173	2008	
3163	0	2127	1951	2122	2088	
3164	0	2128	1861	2103	2163	
3165	0	2123	1935	2047	2133	
3166	0	2089	2118	2009	2017	
3167	0	2087	2350	1997	2024	
3168	0	2112	2308	2027	2066	
3169	0	2075	2134	2012	2030	
3170	0	1895	1952	1936	2047	
3171	0	1849	1947	1956	1989	
3172	0	2009	2008	2086	1992	
3173	0	2094	2079	2125	2101	
3174	0	2018	2052	1999	2153	
3175	0	1939	2010	1999	2086	
3176	0	1994	2082	2102	1935	
3177	0	2090	2163	2122	1893	
3178	0	2256	2135	2116	1919	
3179	0	2173	2065	2097	1920	
3180	0	2107	2001	2046	2049	
3181	0	2051	1964	1990	2122	
3182	0	2015	2004	1952	2123	
3183	0	2048	2063	1983	2099	
3184	0	2020	2033	2017	2062	
3185	0	2006	2096	2042	2035	
3186	0	2019	2139	2043	2035	
3187	0	2033	2089	2050	2013	
3188	0	2068	2021	2082	2009	
3189	0	2048	1892	2037	2140	
3190	0	2043	1890	1978	2172	
3191	0	2076	1986	2013	2231	
3192	0	2009	1913	2028	2184	
3193	0	1915	1971	2008	2066	
3194	0	1988	2158	2054	1933	
3195	0	2108	2165	2131	1992	
3196	0	2066	2088	2144	2004	
3197	0	1988	2094	2159	1970	
3198	0	2010	2109	2156	1940	
3199	0	2046	2060	2085	1977	
3200	0	2095	2097	2059	2079	
3201	0	2122	2130	2034	1972	
3202	0	2158	2116	2030	1987	
3203	0	2120	2080	2024	2038	
3204	0	2140	2074	2026	2058	
3205	0	2171	2069	2021	2031	
3206	0	2108	2025	2030	1986	
3207	0	2073	1975	2079	2018	
3208	0	2031	1990	2049	2131	
3209	0	1925	1991	1968	2152	
3210	0	1833	1953	1958	2206	
3211	0	1925	2001	2018	2198	
3212	0	1970	2005	2035	2142	
3213	0	1955	2008	1994	2058	
3214	0	1963	1995	2094	2012	
3215	0	2047	2035	2145	1948	
3216	0	2232	2108	2225	1937	
3217	0	2259	2131	2133	1915	
3218	0	2298	2038	2085	2060	
3219	0	2126	1958	2092	2187	
3220	0	2042	2039	2061	2161	
3221	0	2049	2126	2004	2041	
3222	0	2063	2127	2024	1974	
3223	0	2074	2108	1992	1981	
3224	0	1966	2068	1972	1984	
3225	0	1969	2056	2011	1952	
3226	0	2002	2067	2048	1999	
3227	0	2015	2046	2065	2125	
3228	0	1968	2052	1938	2131	
3229	0	1974	2015	1966	2142	
3230	0	2042	1994	2037	2080	
3231	0	2062	1992	2084	2003	
3232	0	2016	1976	2049	2005	
3233	0	1992	1966	2044	2053	
3234	0	2045	1936	2105	2093	
3235	0	2108	1952	2072	2048	
3236	0	2068	1989	2053	2004	
3237	0	2066	1976	2039	1988	
3238	0	1977	2030	2019	2068	
3239	0	1995	2060	2038	2083	
3240	0	2173	2214	2154	1908	
3241	0	2128	2274	2144	1906	
3242	0	1999	2256	2048	2014	
3243	0	2051	2165	2041	2137	
3244	0	2066	2097	2065	2248	
3245	0	2041	2110	2029	2146	
3246	0	2064	2126	2015	2043	
3247	0	2080	2086	2037	2035	
3248	0	2075	2005	2021	2104	
3249	0	2042	1953	1982	2143	
3250	0	2025	1982	1980	2067	
3251	0	2003	1986	1972	1998	
3252	0	2018	2033	1981	1936	
3253	0	2061	2091	1956	1957	
3254	0	2045	2090	1998	1963	
3255	0	2042	2041	2062	2032	
3256	0	1981	1944	2051	2177	
3257	0	2065	1986	2067	2146	
3258	0	2118	1981	2116	2100	
3259	0	2098	2004	2148	2077	
3260	0	1937	2005	2056	2025	
3261	0	1860	1982	2038	2054	
3262	0	2034	2036	2121	2028	
3263	0	2243	2155	2197	1931	
3264	0	2260	2158	2195	1952	
3265	0	2050	2044	2103	2006	
3266	0	1945	1999	2069	2015	
3267	0	1914	2066	2008	1981	
3268	0	1967	2080	1999	2044	
3269	0	2005	2074	1921	2093	
3270	0	2107	2095	1929	2013	
3271	0	2192	2138	1988	1980	
3272	0	2140	2041	2063	2088	
3273	0	2099	1952	2097	2118	
3274	0	1986	1929	2036	2062	
3275	0	1974	2054	2039	2044	
3276	0	2016	2107	2040	2056	
3277	0	2061	2066	1943	1998	
3278	0	2114	1979	1970	2051	
3279	0	2149	1997	2083	2023	
3280	0	2133	2068	2107	2064	
3281	0	2031	2081	2082	2165	
3282	0	2013	2111	2126	2149	
3283	0	2051	2172	2126	2008	
3284	0	2106	2126	2120	1915	
3285	0	2078	2062	2076	2012	
3286	0	2033	2019	2003	2170	
3287	0	1984	2001	2006	2173	
3288	0	2052	2060	2068	2023	
3289	0	1990	2065	2011	2059	
3290	0	1827	2007	1959	2134	
3291	0	1918	2017	2026	2033	
3292	0	2075	1995	2101	2022	
3293	0	2204	2006	2108	2018	
3294	0	2263	1910	2099	2057	
3295	0	2186	1885	2129	2066	
3296	0	2114	1959	2113	2005	
3297	0	1971	2043	2027	2065	
3298	0	1840	2117	2007	2074	
3299	0	1952	2137	2099	1958	
3300	0	2069	2181	2065	1903	
3301	0	2122	2254	2005	1944	
3302	0	2108	2158	1991	2026	
3303	0	2020	2062	1998	2136	
3304	0	1994	2032	2031	2083	
3305	0	2035	2038	2079	2014	
3306	0	2057	2046	2069	2061	
3307	0	2021	1997	2056	2127	
3308	0	1964	1942	2024	2158	
3309	0	2001	1979	2028	2118	
3310	0	2047	2027	2029	2105	
3311	0	2101	1999	2036	2071	
3312	0	2181	2009	2041	2043	
3313	0	2126	1997	2051	2056	
3314	0	2085	1989	1998	2034	
3315	0	2047	2044	2008	2045	
3316	0	1989	2057	1995	2089	
3317	0	1971	2073	2037	2033	
3318	0	1990	2186	2018	1972	
3319	0	2040	2188	2026	2005	
3320	0	2084	2155	2059	1988	
3321	0	2082	2116	2057	1958	
3322	0	2041	2041	2079	2025	
3323	0	1973	1986	2075	2042	
3324	0	1934	1926	2046	2071	
3325	0	2042	1967	2057	2078	
3326	0	2145	2016	2063	2021	
3327	0	2070	1993	2027	1969	
3328	0	2026	1953	2009	1983	
3329	0	1972	1997	2009	2038	
3330	0	1980	2137	2027	2125	
3331	0	2137	2165	2167	2071	
3332	0	2229	2106	2259	2102	
3333	0	2134	2126	2123	2057	
3334	0	2076	2156	2014	1978	
3335	0	2130	2020	2041	2024	
3336	0	2100	1992	2047	2071	
3337	0	2069	2027	2046	2112	
3338	0	2007	2026	2044	2089	
3339	0	1934	2035	1963	2090	
3340	0	1930	2077	1947	2051	
3341	0	1987	2105	1994	2044	
3342	0	2023	2045	2000	2127	
3343	0	2051	1971	2052	2161	
3344	0	2092	1981	2076	2095	
3345	0	2095	1942	2067	2031	
3346	0	2087	1999	2048	1885	
3347	0	2028	2057	1997	1769	
3348	0	2011	2022	2032	1741	
3349	0	1983	2005	2051	1920	
3350	0	1981	2020	2069	2238	
3351	0	2031	2097	2083	2343	
3352	0	2141	2145	2110	2183	
3353	0	2104	2121	2033	2067	
3354	0	2094	2226	2006	1985	
3355	0	2113	2257	1998	2005	
3356	0	2119	2142	2030	2102	
3357	0	2073	2065	2059	2145	
3358	0	1990	1990	2051	2122	
3359	0	1931	1955	2061	2071	
3360	0	2051	1997	2125	1940	
3361	0	2167	2015	2203	1956	
3362	0	2122	1981	2164	2032	
3363	0	2047	2045	2094	2066	
3364	0	1990	2065	2060	2084	
3365	0	2004	2039	2081	2084	
3366	0	2043	2055	2101	2096	
3367	0	2141	2005	2020	2116	
3368	0	2138	1981	1979	2064	
3369	0	2052	2043	1953	1996	
3370	0	1998	2071	1923	2017	
3371	0	1958	2076	1958	2085	
3372	0	1933	2063	2014	2128	
3373	0	2029	1993	2117	2138	
3374	0	2059	1912	2124	2117	
3375	0	2034	1936	2040	2025	
3376	0	2054	2004	2034	1920	
3377	0	2028	2052	2021	1907	
3378	0	1990	2088	2027	1952	
3379	0	2078	2165	2041	1976	
3380	0	2177	2154	2078	2025	
3381	0	2150	2163	2045	1983	
3382	0	2141	2099	2077	1984	
3383	0	1886	1992	1992	1986	
3384	0	1925	2036	1978	2008	
3385	0	2071	2074	2019	2042	
3386	0	2162	2102	2087	2023	
3387	0	2158	2102	2064	2083	
3388	0	2079	2039	2049	2137	
3389	0	1899	2032	1998	2124	
3390	0	1800	2069	1971	2070	
3391	0	1867	2063	2043	2094	
3392	0	1969	2006	2067	2075	
3393	0	2030	1999	2047	2077	
3394	0	2152	1981	2062	2080	
3395	0	2114	1934	2046	2101	
3396	0	2104	1904	2019	2098	
3397	0	2022	1960	2024	2050	
3398	0	1933	1987	2081	2125	
3399	0	1992	2005	2058	2164	
3400	0	2061	2005	2140	2061	
3401	0	2092	1954	2119	2064	
3402	0	2249	1995	2107	2074	
3403	0	2257	2078	2048	2025	
3404	0	2128	2082	1973	1979	
3405	0	2079	2148	1997	1980	
3406	0	1973	2163	1971	1923	
3407	0	1936	2193	2040	1927	
3408	0	2074	2262	2132	1860	
3409	0	2125	2228	2210	1823	
3410	0	2149	2089	2149	2010	
3411	0	2210	2070	2113	2049	
3412	0	2195	2103	2130	2153	
3413	0	2110	2129	2095	2188	
3414	0	2055	2123	2074	2137	
3415	0	2043	2077	2022	2096	
3416	0	2017	1974	1997	2076	
3417	0	1947	1939	1972	2018	
3418	0	1942	1900	1982	2107	
3419	0	1957	1926	1951	2108	
3420	0	1950	1996	1964	2085	
3421	0	1982	2008	1982	2128	
3422	0	2003	2025	2009	2110	
3423	0	2020	2031	2020	2070	
3424	0	2052	2028	2029	2055	
3425	0	2041	1915	2046	2047	
3426	0	2064	1934	2067	1957	
3427	0	2080	1976	2045	1995	
3428	0	2065	2018	2046	2094	
3429	0	2009	2064	2030	2014	
3430	0	1991	2093	2042	2022	
3431	0	2050	2114	2041	1996	
3432	0	2075	2040	2062	1980	
3433	0	2104	2067	2092	2091	
3434	0	2116	2120	2124	2032	
3435	0	2028	2141	2149	2047	
3436	0	1967	2161	2080	2016	
3437	0	1975	2119	2017	1990	
3438	0	1979	2057	2007	2044	
3439	0	1992	2103	1937	2023	
3440	0	2037	2114	1984	2053	
3441	0	2133	2025	2101	2108	
3442	0	2083	1948	2050	2057	
3443	0	2013	1972	2008	1963	
3444	0	2123	2026	2138	1930	
3445	0	2161	1983	2136	2048	
3446	0	2193	1963	2136	2143	
3447	0	2141	2086	2083	2144	
3448	0	2038	2136	1992	2144	
3449	0	1937	2084	1995	2159	
3450	0	1963	2010	2054	2168	
3451	0	2045	2072	2110	2065	
3452	0	2062	2108	2077	2073	
3453	0	2040	2040	2032	2031	
3454	0	2031	2008	2011	1989	
3455	0	2028	2018	1970	2035	
3456	0	2020	2015	1988	2088	
3457	0	2041	2013	2028	1985	
3458	0	2062	1980	2018	1980	
3459	0	2068	1938	2049	2040	
3460	0	2105	2020	2027	1981	
3461	0	2128	2199	2029	1854	
3462	0	2152	2211	2025	1839	
3463	0	2146	2109	2016	1930	
3464	0	2017	1964	2007	2164	
3465	0	1935	1955	1976	2200	
3466	0	1855	1998	1990	2148	
3467	0	1834	2056	2002	2160	
3468	0	1898	2041	2014	2210	
3469	0	2027	2043	2091	2148	
3470	0	2151	2085	2216	2024	
3471	0	2084	2105	2202	1937	
3472	0	2064	2009	2087	1957	
3473	0	2140	2036	2114	1966	
3474	0	2150	2099	2144	2050	
3475	0	2160	2113	2114	2036	
3476	0	2161	2162	2123	1985	
3477	0	2212	2203	2126	1985	
3478	0	2258	2143	2116	2013	
3479	0	2142	2090	2056	1986	
3480	0	1977	2007	1951	2032	
3481	0	1767	1979	1841	2041	
3482	0	1896	2028	1929	2060	
3483	0	2069	2006	2005	2094	
3484	0	2055	1997	1982	2070	
3485	0	2033	1941	2010	2066	
3486	0	1974	1964	2004	2068	
3487	0	1852	1994	1936	2064	
3488	0	1876	2022	2007	2092	
3489	0	1977	1993	2057	2160	
3490	0	2034	2071	2070	2140	
3491	0	2037	2074	2113	2182	
3492	0	2146	2067	2178	2158	
3493	0	2148	2004	2193	2169	
3494	0	2153	2041	2103	2016	
3495	0	2205	2054	2037	1903	
3496	0	2132	2058	2089	1906	
3497	0	2028	2081	2108	1885	
3498	0	2122	2163	2102	1962	
3499	0	2064	2174	2053	2021	
3500	0	2058	2190	2069	2043	
3501	0	1986	2178	2042	2059	
3502	0	2014	2086	2056	2136	
3503	0	2128	2011	2017	2147	
3504	0	2119	1940	2007	2107	
3505	0	2080	1946	2073	2091	
3506	0	2047	1976	2078	2021	
3507	0	2007	2026	2031	1919	
3508	0	1985	2098	2002	1882	
3509	0	1959	2089	1986	1986	
3510	0	1954	2016	1986	2101	
3511	0	1956	1945	1951	2163	
3512	0	2002	1963	1951	2067	
3513	0	2041	1981	1982	2070	
3514	0	2121	2037	2037	2059	
3515	0	2122	2008	2038	2051	
3516	0	2097	2016	2074	2014	
3517	0	1937	1991	2046	2047	
3518	0	1861	2027	2050	2095	
3519	0	1968	2068	2127	2087	
3520	0	2129	2124	2139	1972	
3521	0	2167	2179	2020	1877	
3522	0	2084	2128	1952	1966	
3523	0	2107	2110	1999	2003	
3524	0	2154	2127	2029	1995	
3525	0	2172	2066	2005	2105	
3526	0	2101	2059	2012	2152	
3527	0	2042	2101	2169	2115	
3528	0	2077	2144	2217	2091	
3529	0	2129	2107	2186	2108	
3530	0	2112	2070	2174	2107	
3531	0	2024	2025	2052	2081	
3532	0	2001	1995	2026	2065	
3533	0	2005	1990	2014	2056	
3534	0	1991	1974	2013	2030	
3535	0	1983	1912	2027	2064	
3536	0	1937	1860	1998	2135	
3537	0	1973	1963	1997	2018	
3538	0	2029	2022	1953	1929	
3539	0	2063	2161	1954	2006	
3540	0	2066	2136	1980	2060	
3541	0	1986	2041	1997	2024	
3542	0	1983	1976	1990	1943	
3543	0	1963	1966	1993	2007	
3544	0	1993	2053	2065	2044	
3545	0	2097	2208	2122	2134	
3546	0	2154	2244	2165	2071	
3547	0	2152	2218	2155	1995	
3548	0	2103	2147	2073	1998	
3549	0	2000	2087	1955	2070	
3550	0	2066	2030	2062	2092	
3551	0	2300	2028	2212	2061	
3552	0	2310	2019	2192	2078	
3553	0	2218	2005	2120	2080	
3554	0	2003	1973	2121	2038	
3555	0	1894	1970	2071	2018	
3556	0	1980	1998	2005	2027	
3557	0	1942	2030	1914	2083	
3558	0	1827	2034	1892	2110	
3559	0	1878	2042	1944	2114	
3560	0	1982	2056	1990	2105	
3561	0	2067	2063	2033	2041	
3562	0	2040	2042	2043	2005	
3563	0	2035	2058	2007	2007	
3564	0	2082	2057	2010	1989	
3565	0	2111	2036	2027	1948	
3566	0	2127	2026	2071	1929	
3567	0	1995	1931	1999	2085	
3568	0	1884	1880	2030	2249	
3569	0	1963	1956	2057	2174	
3570	0	2052	2033	2099	2092	
3571	0	2159	2159	2148	1943	
3572	0	2200	2180	2197	1877	
3573	0	2118	2125	2088	1946	
3574	0	2026	2040	2002	2097	
3575	0	2061	2052	2012	2082	
3576	0	2129	2169	2078	1986	
3577	0	2015	2216	2058	1992	
3578	0	2012	2144	2085	2027	
3579	0	2068	2107	2169	2021	
3580	0	2100	2048	2136	2062	
3581	0	2068	2028	2097	2109	
3582	0	2029	1989	2044	2106	
3583	0	2095	1957	2022	2070	
3584	0	2082	1958	2023	2035	
3585	0	2083	1976	2012	2066	
3586	0	1991	1970	1950	2083	
3587	0	1949	1943	1929	2158	
3588	0	1933	1980	1974	2176	
3589	0	1972	2020	2001	2120	
3590	0	2089	2073	2062	2014	
3591	0	2147	2057	2050	1993	
3592	0	2185	2022	2039	2033	
3593	0	2179	2016	2065	2064	
3594	0	2029	2011	2048	2109	
3595	0	2001	2074	2056	2059	
3596	0	1962	2072	2042	2103	
3597	0	1958	2116	2054	2108	
3598	0	2079	2155	2124	2014	
3599	0	2105	2160	2129	1894	
3600	0	2057	2072	2057	1888	
3601	0	2023	1998	2107	1914	
3602	0	2078	1990	2075	1893	
3603	0	2069	1990	1976	1879	
3604	0	2021	2024	1987	1976	
3605	0	2068	2047	2052	2149	
3606	0	2108	2169	2039	2158	
3607	0	2038	2190	1989	2122	
3608	0	1955	2177	1992	2048	
3609	0	1985	2106	2039	2051	
3610	0	2077	2087	2079	2067	
3611	0	2138	2037	2079	2075	
3612	0	2136	2022	2117	2049	
3613	0	1969	2024	2106	2068	
3614	0	1938	2006	2058	2077	
3615	0	2059	2020	1992	2087	
3616	0	2045	2012	1955	2138	
3617	0	1986	1983	1952	2120	
3618	0	2009	2000	1991	2126	
3619	0	2051	2043	2034	2061	
3620	0	2067	2040	2061	2050	
3621	0	2048	1972	2042	2102	
3622	0	2076	1918	2075	2085	
3623	0	2044	1914	2104	2034	
3624	0	2045	2025	2068	1949	
3625	0	2065	2090	2059	1952	
3626	0	2043	2036	2053	2031	
3627	0	2013	2092	2072	1976	
3628	0	1969	2098	2052	1911	
3629	0	2003	2131	2058	1963	
3630	0	2152	2094	2102	2039	
3631	0	2198	2076	2092	2015	
3632	0	2202	2023	2032	2046	
3633	0	2243	2077	2012	2058	
3634	0	2142	2031	2036	2157	
3635	0	1993	1888	2073	2189	
3636	0	1972	1917	2081	2112	
3637	0	1912	2060	2107	2078	
3638	0	1992	2234	2106	1977	
3639	0	2062	2242	2097	1978	
3640	0	2063	2174	2089	1932	
3641	0	2063	2126	2085	1948	
3642	0	2029	2108	2037	2035	
3643	0	2002	2083	2009	2136	
3644	0	2021	2011	2026	2115	
3645	0	2027	2037	2008	2044	
3646	0	1993	2030	1978	2098	
3647	0	1988	1943	1981	2169	
3648	0	2002	1919	1973	2189	
3649	0	2005	1951	1981	2166	
3650	0	2003	2011	1967	2032	
3651	0	2096	2083	1996	1953	
3652	0	2090	2027	2058	2037	
3653	0	2166	2013	2099	2085	
3654	0	2139	2069	2092	2047	
3655	0	2060	2063	2095	2024	
3656	0	2005	2004	2077	2029	
3657	0	2023	2043	2105	1954	
3658	0	2027	2056	2095	1954	
3659	0	2033	2084	2121	1957	
3660	0	2156	2081	2082	2001	
3661	0	2109	2075	2039	2022	
3662	0	2079	2013	2033	2076	
3663	0	2037	2020	1966	2128	
3664	0	1903	2012	1930	2131	
3665	0	2036	2026	2024	2055	
3666	0	2108	2041	2073	2034	
3667	0	2086	2057	2030	2034	
3668	0	2104	2050	2024	1982	
3669	0	2081	2070	2047	1985	
3670	0	2014	2016	2071	2061	
3671	0	1914	2017	2047	2063	
3672	0	1822	2110	2024	2024	
3673	0	1982	2165	2064	2073	
3674	0	2145	2124	2139	2160	
3675	0	2128	2032	2163	2119	
3676	0	2024	1975	2068	2085	
3677	0	1944	1928	1984	2058	
3678	0	1942	1989	1961	2036	
3679	0	2002	2010	1998	2030	
3680	0	2052	2010	2010	2019	
3681	0	2022	1988	1922	2038	
3682	0	2000	1985	1977	1993	
3683	0	2037	2081	2108	1944	
3684	0	2231	2221	2174	2020	
3685	0	2281	2257	2148	2058	
3686	0	2198	2203	2022	2081	
3687	0	2166	2139	2071	2030	
3688	0	2136	2069	2136	2012	
3689	0	2078	2045	2125	2066	
3690	0	2045	1959	2058	2161	
3691	0	2025	1925	2032	2159	
3692	0	2066	1977	2042	2145	
3693	0	2086	2016	2035	2156	
3694	0	2018	1966	1977	2105	
3695	0	1937	1926	1941	2002	
3696	0	1847	1948	1939	1990	
3697	0	1888	2000	1999	2080	
3698	0	1996	2108	2092	1985	
3699	0	2119	2222	2123	1834	
3700	0	2081	2215	2013	1818	
3701	0	2002	2087	1978	1944	
3702	0	2022	2061	2075	2013	
3703	0	2139	2123	2140	2060	
3704	0	2092	2067	2067	2135	
3705	0	2015	1994	2063	2171	
3706	0	2066	2027	2139	2064	
3707	0	2100	1990	2159	2012	
3708	0	2158	1942	2130	2060	
3709	0	2158	1940	2069	2078	
3710	0	2159	1997	2077	2067	
3711	0	2066	2097	1975	2078	
3712	0	2042	2179	2019	2040	
3713	0	2019	2070	2050	1996	
3714	0	1928	1929	2065	2102	
3715	0	1983	1977	2127	2143	
3716	0	2027	2016	2088	2038	
3717	0	2050	2150	2018	2010	
3718	0	2182	2199	2044	1998	
3719	0	2168	2137	2038	2058	
3720	0	2001	2134	1932	2144	
3721	0	1900	2132	1899	2081	
3722	0	1870	2034	1893	2114	
3723	0	1934	2049	1923	1998	
3724	0	2101	2065	2016	1997	
3725	0	2125	2017	2018	2076	
3726	0	2085	1971	2057	2131	
3727	0	2017	1973	2020	2157	
3728	0	2002	2000	1996	2095	
3729	0	2013	2003	1989	2009	
3730	0	2036	1973	2004	1961	
3731	0	2018	2042	1989	1959	
3732	0	2035	2058	2028	1979	
3733	0	2067	2081	2105	2022	
3734	0	2070	2047	2120	1953	
3735	0	2069	2094	2134	1850	
3736	0	1967	2050	2126	1952	
3737	0	1984	2002	2191	2049	
3738	0	2145	1997	2318	2062	
3739	0	2245	2037	2377	1997	
3740	0	2140	2070	2185	2084	
3741	0	2101	2094	2104	2104	
3742	0	2244	2089	2087	2144	
3743	0	2324	2090	2090	2132	
3744	0	2281	2089	2007	2169	
3745	0	1954	1979	1905	2252	
3746	0	1692	1981	1863	2248	
3747	0	1709	2014	1871	2147	
3748	0	1829	2054	1873	2027	
3749	0	1934	2123	1910	1978	
3750	0	1969	2107	1923	1989	
3751	0	1990	2102	2000	1952	
3752	0	2060	2128	2079	1954	
3753	0	2172	2009	2162	2074	
3754	0	2072	1912	2062	2106	
3755	0	1946	2013	1979	2065	
3756	0	2069	2044	1980	2034	
3757	0	2175	1979	2079	2055	
3758	0	2204	2070	2143	2018	
3759	0	2115	2155	2144	1931	
3760	0	2026	2046	2075	1904	
3761	0	1979	1971	1981	1938	
3762	0	1994	1990	2003	2090	
3763	0	2123	1998	2193	2113	
3764	0	2198	2071	2201	2027	
3765	0	2182	2171	2107	2070	
3766	0	2064	2220	1981	2062	
3767	0	2032	2126	2023	2035	
3768	0	2032	2031	2019	2034	
3769	0	1986	2010	1972	1944	
3770	0	2066	1999	1983	1949	
3771	0	2102	1960	2035	2046	
3772	0	2048	2046	2056	2130	
3773	0	2041	2137	2098	2150	
3774	0	2012	2091	2063	2118	
3775	0	2009	2079	2051	2067	
3776	0	2012	2042	2019	2059	
3777	0	2013	1949	1984	2000	
3778	0	2053	1959	1986	1923	
3779	0	2034	1912	1934	2006	
3780	0	1969	1947	1900	1998	
3781	0	1927	1934	1941	2032	
3782	0	1951	1952	2008	2229	
3783	0	1942	2078	2019	2213	
3784	0	1976	2162	2052	2092	
3785	0	2024	2203	2149	2110	
3786	0	2046	2181	2265	2061	
3787	0	2114	2044	2210	2070	
3788	0	2152	2102	2199	1937	
3789	0	2244	2230	2194	1869	
3790	0	2190	2196	2148	1991	
3791	0	2184	2095	2146	2036	
3792	0	2187	2066	2158	2128	
3793	0	2149	2003	2086	2182	
3794	0	2065	1971	1951	2211	
3795	0	2007	1974	1965	2132	
3796	0	1994	2030	1986	2022	
3797	0	1991	2086	1993	2010	
3798	0	1971	2042	1987	2015	
3799	0	1946	2025	1945	1970	
3800	0	1947	2036	1956	1993	
3801	0	1996	1991	2009	2094	
3802	0	2030	1985	2028	2058	
3803	0	2032	2049	1970	2047	
3804	0	2045	2047	1964	2052	
3805	0	1993	2019	1956	1994	
3806	0	1995	2052	1945	1916	
3807	0	2034	2034	1969	1954	
3808	0	2061	2026	2027	1996	
3809	0	2118	2008	2068	2022	
3810	0	2165	2044	2106	2031	
3811	0	2180	2003	2171	2116	
3812	0	2077	2004	2211	2126	
3813	0	1961	1966	2163	2164	
3814	0	1859	1931	2165	2185	
3815	0	1965	1984	2091	2119	
3816	0	2096	2016	2014	2081	
3817	0	2146	2102	2052	2035	
3818	0	2181	2139	2153	2002	
3819	0	2098	2203	2060	2000	
3820	0	2128	2250	2038	1894	
3821	0	2167	2178	2046	1950	
3822	0	2170	2066	2081	2021	
3823	0	2194	2134	2053	2059	
3824	0	2148	2169	2012	2066	
3825	0	2108	2089	1985	2046	
3826	0	1859	2019	1896	2040	
3827	0	1706	1969	1897	2004	
3828	0	1798	1978	1944	2005	
3829	0	1933	1989	1960	2073	
3830	0	2012	1903	2007	2079	
3831	0	1987	1830	2054	2086	
3832	0	1924	1973	2036	2134	
3833	0	1864	2043	2004	2156	
3834	0	2061	2100	1993	2057	
3835	0	2218	2108	2119	2038	
3836	0	2326	2218	2230	2047	
3837	0	2256	2205	2198	2067	
3838	0	2187	2169	2196	1989	
3839	0	2100	2145	2123	1988	
3840	0	2058	2074	2128	1987	
3841	0	2037	1968	2152	2041	
3842	0	2048	1952	2114	1974	
3843	0	1977	1975	2027	1931	
3844	0	1984	1992	1956	2022	
3845	0	2027	2055	1944	2104	
3846	0	2030	2008	1973	2122	
3847	0	2033	1991	2058	2174	
3848	0	2030	2026	2042	2146	
3849	0	2038	2068	1983	2117	
3850	0	1986	2012	1970	2192	
3851	0	1976	1984	1991	2094	
3852	0	2095	1963	1962	2033	
3853	0	2083	2032	1923	2010	
3854	0	2018	2131	2017	1931	
3855	0	2045	2144	2129	1936	
3856	0	2052	2170	2203	1849	
3857	0	2040	2122	2167	1790	
3858	0	2114	2098	2150	1946	
3859	0	2092	2107	2060	2135	
3860	0	2019	2089	1995	2169	
3861	0	2047	2096	1990	2125	
3862	0	2071	2105	1993	2054	
3863	0	2113	2116	2073	2054	
3864	0	2199	2040	2176	2103	
3865	0	2070	1935	2078	2164	
3866	0	2013	1963	2023	2080	
3867	0	1976	1992	2008	2052	
3868	0	1902	1942	1996	2078	
3869	0	1985	1931	1982	2064	
3870	0	2084	1995	2001	2050	
3871	0	2081	2020	2035	2065	
3872	0	2080	2023	2042	2093	
3873	0	2071	2040	2077	2081	
3874	0	2006	2034	2038	2065	
3875	0	2060	2015	2073	2108	
3876	0	2083	2042	2085	2176	
3877	0	2121	2098	2070	2077	
3878	0	2137	2102	2053	1972	
3879	0	2137	2088	2077	1933	
3880	0	2026	1976	2046	1972	
3881	0	1949	1990	2002	1965	
3882	0	1909	2026	1997	1995	
3883	0	1928	2068	1989	2052	
3884	0	1947	2117	2006	2015	
3885	0	1983	2108	1985	1956	
3886	0	2057	2101	2019	1926	
3887	0	2156	2135	2070	1966	
3888	0	2182	2122	2046	2062	
3889	0	2090	2096	2036	2023	
3890	0	2095	2092	2075	2032	
3891	0	2027	2039	2130	2100	
3892	0	2008	1999	2158	2059	
3893	0	2070	1959	2139	2102	
3894	0	2021	1917	2127	2078	
3895	0	1966	1911	2125	2103	
3896	0	1974	1982	2050	2101	
3897	0	2000	2086	2009	2154	
3898	0	2009	2180	2003	2152	
3899	0	2030	2198	1935	2100	
3900	0	2119	2125	2029	2058	
3901	0	2101	2122	2038	1980	
3902	0	2159	2139	2069	1988	
3903	0	2188	2082	2092	2031	
3904	0	2170	2058	2085	2032	
3905	0	2102	2005	2102	2065	
3906	0	2031	1940	2076	2112	
3907	0	1988	1942	2066	2112	
3908	0	2078	1995	2112	2062	
3909	0	2089	2030	2114	2049	
3910	0	2036	2048	2028	2070	
3911	0	1980	2040	1975	2108	
3912	0	1922	2030	1948	2086	
3913	0	2004	2039	1965	2009	
3914	0	1987	1977	1963	1998	
3915	0	2069	1968	2021	1981	
3916	0	2122	1966	1989	1996	
3917	0	2020	1967	2003	2068	
3918	0	2029	2053	2050	2102	
3919	0	2007	2156	2093	2020	
3920	0	1932	2172	2051	1833	
3921	0	1985	2157	2064	1868	
3922	0	2141	2177	2065	1950	
3923	0	2118	2152	2075	2036	
3924	0	2091	2093	2063	2042	
3925	0	2088	2029	2037	2071	
3926	0	2062	1995	2051	2105	
3927	0	2046	1956	2075	2068	
3928	0	2065	1933	2065	2115	
3929	0	2056	1958	2010	2190	
3930	0	2058	1990	2046	2172	
3931	0	2119	2088	2128	2090	
3932	0	2182	2178	2154	2048	
3933	0	2041	2129	2081	2095	
3934	0	1954	2018	2057	2102	
3935	0	1975	1993	2066	2007	
3936	0	1974	2011	2074	1934	
3937	0	1928	2069	1994	1947	
3938	0	1957	2134	2004	2007	
3939	0	2056	2057	1942	2152	
3940	0	2089	1947	1977	2116	
3941	0	2151	1963	2083	2059	
3942	0	2118	1920	2085	2107	
3943	0	2003	1871	1994	2072	
3944	0	1966	1916	1967	1972	
3945	0	2052	2064	1990	2003	
3946	0	2043	2186	2020	2057	
3947	0	2104	2222	2117	1975	
3948	0	2163	2216	2146	2079	
3949	0	2151	2166	2086	2186	
3950	0	2093	2086	2019	2114	
3951	0	2041	2082	2009	1923	
3952	0	2038	2088	2079	1781	
3953	0	2098	2040	2078	1935	
3954	0	2172	2051	2038	2116	
3955	0	2106	2095	2005	2121	
3956	0	2062	2038	2085	2009	
3957	0	1993	2042	2097	1980	
3958	0	1822	2054	2012	1947	
3959	0	1830	2128	2025	2068	
3960	0	1852	2119	2050	2208	
3961	0	1958	2019	2099	2119	
3962	0	2062	1920	2108	2118	
3963	0	2126	1941	2111	2202	
3964	0	2129	2002	2134	2129	
3965	0	2111	1984	2113	2038	
3966	0	2213	1987	2174	2046	
3967	0	2184	1990	2116	2048	
3968	0	2080	2025	2002	2084	
3969	0	2040	2146	1960	2028	
3970	0	2010	2197	1954	1955	
3971	0	2050	2151	1957	1897	
3972	0	2004	2031	1951	1986	
3973	0	1951	1946	1912	2045	
3974	0	1976	1930	1947	2063	
3975	0	2026	1983	1965	2069	
3976	0	2023	2044	1995	2046	
3977	0	2102	2083	2053	2020	
3978	0	2102	2084	2038	2033	
3979	0	2057	1985	2075	2124	
3980	0	2066	2045	2154	2074	
3981	0	2093	2084	2198	1997	
3982	0	2011	2021	2127	2037	
3983	0	2052	1998	2129	2075	
3984	0	2169	2081	2104	2006	
3985	0	2200	2126	2138	1951	
3986	0	2192	2116	2171	2083	
3987	0	2129	2085	2042	2125	
3988	0	1882	2026	1869	2113	
3989	0	1890	2045	1872	2073	
3990	0	1940	2030	1868	1991	
3991	0	1911	2034	1898	1910	
3992	0	1942	2067	1983	1942	
3993	0	1968	2042	2059	2032	
3994	0	2068	2022	2140	2031	
3995	0	2074	2055	2103	2089	
3996	0	2048	2081	2058	2033	
3997	0	2044	2076	2082	1994	
3998	0	2071	2091	2067	2028	
3999	0	2081	2017	2097	2150	
4000	0	2123	1944	2180	2268	
4001	0	2169	1980	2128	2165	
4002	0	2190	2045	2114	2082	
4003	0	2200	2111	2111	2052	
4004	0	2136	2092	2100	2040	
4005	0	1982	2050	2047	2090	
4006	0	1911	2065	2040	2054	
4007	0	1999	2106	2033	2021	
4008	0	2018	2106	2025	2015	
4009	0	2002	2046	1986	1987	
4010	0	2003	1999	1995	2026	
4011	0	2050	1949	2015	2084	
4012	0	2091	1994	2039	2054	
4013	0	2026	1986	2030	2041	
4014	0	2017	2010	1969	2085	
4015	0	2017	2022	1965	2072	
4016	0	1966	2031	1956	2020	
4017	0	2006	2026	2001	2005	
4018	0	2036	1987	1957	2036	
4019	0	2043	2004	1972	2184	
4020	0	2035	2082	2011	2143	
4021	0	2069	2082	2094	2022	
4022	0	2094	2108	2127	1984	
4023	0	2020	2125	2141	2002	
4024	0	2058	2096	2150	2023	
4025	0	2191	2135	2160	1982	
4026	0	2160	2158	2124	1920	
4027	0	2109	2099	2124	1988	
4028	0	2127	2043	2107	2066	
4029	0	2128	2020	2048	2099	
4030	0	2040	2019	2023	2068	
4031	0	1965	2026	2041	2058	
4032	0	1850	2058	1975	2058	
4033	0	1790	2062	2004	2108	
4034	0	1990	2046	2044	2117	
4035	0	2131	2052	2015	2045	
4036	0	2090	1989	2007	2038	
4037	0	2087	1957	2001	1980	
4038	0	2010	1991	1970	1953	
4039	0	2036	1993	2016	1966	
4040	0	2119	2059	2078	1965	
4041	0	2124	2123	2091	2002	
4042	0	2152	2222	2084	2004	
4043	0	2166	2212	2077	2094	
4044	0	2104	2111	2052	2078	
4045	0	2107	2100	2059	1980	
4046	0	2077	2070	2076	2043	
4047	0	1972	2008	2086	2090	
4048	0	2046	1974	2134	2103	
4049	0	2057	1995	2152	2122	
4050	0	2032	2003	2082	2050	
4051	0	1996	1988	1972	2013	
4052	0	1910	2012	1917	1982	
4053	0	1976	2051	1951	2012	
4054	0	2038	2025	2024	2121	
4055	0	2081	2055	2078	2115	
4056	0	2068	2068	2015	2045	
4057	0	1992	2019	1978	2007	
4058	0	1956	1961	2010	2111	
4059	0	2005	1937	2051	2187	
4060	0	2045	2025	2069	2142	
4061	0	2108	2044	2099	2110	
4062	0	2155	2090	2147	2054	
4063	0	2108	2155	2155	1916	
4064	0	2064	2136	2083	1946	
4065	0	2093	2071	2025	2036	
4066	0	2054	2044	1954	2083	
4067	0	2062	2062	1994	2107	
4068	0	2068	2044	2062	2082	
4069	0	2048	2039	2067	2020	
4070	0	1982	2035	2001	1997	
4071	0	1941	2002	1986	1977	
4072	0	1970	1927	1971	2041	
4073	0	2136	1878	2051	2051	
4074	0	2196	1978	2049	2068	
4075	0	2178	1970	1992	2111	
4076	0	2093	2071	2042	2116	
4077	0	2155	2240	2097	2061	
4078	0	2106	2224	2056	2023	
4079	0	1887	2149	2000	2019	
4080	0	1820	2037	2071	2101	
4081	0	1880	1944	2148	2049	
4082	0	2092	2013	2121	1958	
4083	0	1981	1996	2024	2065	
4084	0	1978	2022	2040	2127	
4085	0	2016	2094	2041	2114	
4086	0	2017	2090	1997	2135	
4087	0	2058	2118	2071	2039	
4088	0	2115	2190	2120	1911	
4089	0	2030	2150	2072	1875	
4090	0	2008	2100	2028	1945	
4091	0	2100	2062	2096	2075	
4092	0	2228	2051	2163	2095	
4093	0	2185	1959	2151	2113	
4094	0	2116	1939	2055	2117	
4095	0	2122	1977	2007	2081	
4096	0	2049	1958	1972	2058	
4097	0	2003	1926	1966	2033	
4098	0	2010	1962	1948	1995	
4099	0	2011	2006	1987	1996	
4100	0	1996	2112	1995	1938	
4101	0	2006	2170	2038	1929	
4102	0	2068	2144	2105	1976	
4103	0	2117	2115	2194	2056	
4104	0	2044	2072	2121	2102	
4105	0	2031	2061	2012	2102	
4106	0	2075	2132	2029	2099	
4107	0	2113	2170	2078	2042	
4108	0	2136	2174	2152	1964	
4109	0	2119	2123	2152	1998	
4110	0	2062	2054	2040	2064	
4111	0	2013	2018	2005	2130	
4112	0	2012	2010	1995	2144	
4113	0	1988	1989	2001	2105	
4114	0	2009	1972	1994	2090	
4115	0	2024	1994	1994	2122	
4116	0	2010	2030	1979	2119	
4117	0	1998	2014	2006	2079	
4118	0	2011	1990	2012	2041	
4119	0	2010	1932	2004	2007	
4120	0	2039	1931	1990	2047	
4121	0	2039	1927	2013	2089	
4122	0	1983	1959	2046	2065	
4123	0	1938	1992	2031	2008	
4124	0	1852	2043	1969	1882	
4125	0	1904	2045	2056	1828	
4126	0	2106	2057	2087	1984	
4127	0	2182	2070	2186	2137	
4128	0	2223	2175	2267	2139	
4129	0	2177	2204	2199	1963	
4130	0	2137	2225	2072	1872	
4131	0	2146	2190	1988	2003	
4132	0	2129	2076	2008	2188	
4133	0	2108	2063	1993	2157	
4134	0	2026	2012	1937	2132	
4135	0	2052	2038	1956	2100	
4136	0	2044	2058	1961	2079	
4137	0	2039	1978	2022	2070	
4138	0	2046	1921	2115	2123	
4139	0	1999	1876	2136	2146	
4140	0	2019	1953	2196	2021	
4141	0	2115	2054	2183	2026	
4142	0	2153	2135	2121	2033	
4143	0	2145	2138	2139	2074	
4144	0	2026	2150	2098	2147	
4145	0	1884	2054	1973	2189	
4146	0	1871	2003	1903	2047	
4147	0	1985	2022	1926	1920	
4148	0	2110	2068	1975	1921	
4149	0	2119	2081	2029	1935	
4150	0	2084	2107	2114	2017	
4151	0	2107	2151	2082	2015	
4152	0	2044	2063	1966	2033	
