# OpenSignals Text File Format
# {"00:07:80:3B:46:6F": {"sensor": ["EMG", "EMG", "EMG", "EMG"], "device name": "00:07:80:3B:46:6F", "column": ["nSeq", "DI", "Direito Multi", "Esquerdo Multi", "Direito ES", "Esquerdo ES"], "sync interval": 2, "time": "12:48:46.370", "comments": "", "device connection": "BTH00:07:80:3B:46:6F", "channels": [1, 2, 3, 4], "date": "2016-9-26", "mode": 0, "digital IO": [0, 1], "firmware version": 514, "device": "bioplux", "position": 0, "sampling rate": 1000, "label": ["Direito Multi", "Esquerdo Multi", "Direito ES", "Esquerdo ES"], "resolution": [12, 12, 12, 12], "special": [{}, {}, {}, {}]}}
# EndOfHeader
0	0	2050	2052	2050	2045	
1	0	2052	2061	2041	2035	
2	0	2050	2055	2044	2045	
3	0	2050	2049	2051	2051	
4	0	2049	2047	2054	2042	
5	0	2043	2047	2048	2036	
6	0	2044	2054	2050	2050	
7	0	2044	2048	2051	2050	
8	0	2043	2041	2045	2039	
9	0	2046	2044	2043	2038	
10	0	2051	2048	2053	2048	
11	0	2051	2052	2053	2054	
12	0	2051	2049	2043	2042	
13	0	2049	2049	2055	2052	
14	0	2056	2051	2062	2056	
15	0	2057	2052	2047	2058	
16	0	2057	2051	2054	2049	
17	0	2054	2047	2055	2057	
18	0	2057	2052	2042	2057	
19	0	2055	2051	2052	2043	
20	0	2054	2053	2054	2037	
21	0	2050	2048	2044	2050	
22	0	2044	2042	2052	2062	
23	0	2046	2045	2048	2046	
24	0	2044	2046	2046	2036	
25	0	2044	2047	2041	2038	
26	0	2042	2050	2036	2043	
27	0	2042	2046	2044	2052	
28	0	2044	2041	2046	2047	
29	0	2041	2051	2036	2039	
30	0	2040	2046	2035	2044	
31	0	2049	2050	2039	2052	
32	0	2052	2053	2047	2050	
33	0	2058	2047	2059	2051	
34	0	2055	2050	2054	2043	
35	0	2060	2052	2061	2045	
36	0	2054	2049	2046	2047	
37	0	2053	2054	2053	2056	
38	0	2055	2049	2052	2057	
39	0	2049	2048	2052	2053	
40	0	2052	2047	2046	2043	
41	0	2051	2046	2034	2041	
42	0	2048	2048	2034	2053	
43	0	2046	2050	2044	2047	
44	0	2046	2052	2052	2042	
45	0	2043	2041	2048	2044	
46	0	2043	2045	2050	2050	
47	0	2042	2048	2057	2045	
48	0	2045	2049	2051	2041	
49	0	2046	2051	2039	2034	
50	0	2051	2046	2056	2040	
51	0	2050	2051	2054	2048	
52	0	2048	2046	2053	2054	
53	0	2048	2049	2051	2044	
54	0	2055	2053	2036	2045	
55	0	2052	2052	2048	2049	
56	0	2052	2047	2054	2054	
57	0	2057	2051	2056	2058	
58	0	2052	2048	2051	2051	
59	0	2053	2048	2038	2042	
60	0	2050	2054	2048	2046	
61	0	2052	2055	2052	2052	
62	0	2050	2049	2047	2052	
63	0	2051	2048	2049	2051	
64	0	2045	2049	2049	2038	
65	0	2045	2049	2047	2043	
66	0	2045	2048	2050	2045	
67	0	2042	2053	2037	2049	
68	0	2043	2042	2047	2051	
69	0	2048	2042	2050	2044	
70	0	2049	2046	2043	2042	
71	0	2050	2050	2041	2050	
72	0	2049	2054	2043	2048	
73	0	2055	2047	2037	2042	
74	0	2053	2053	2053	2049	
75	0	2052	2056	2056	2057	
76	0	2050	2053	2049	2045	
77	0	2055	2049	2060	2046	
78	0	2052	2049	2055	2056	
79	0	2047	2050	2041	2056	
80	0	2054	2056	2052	2047	
81	0	2052	2052	2059	2042	
82	0	2046	2049	2040	2042	
83	0	2049	2051	2045	2050	
84	0	2050	2050	2048	2049	
85	0	2042	2050	2051	2038	
86	0	2044	2047	2043	2036	
87	0	2046	2042	2027	2040	
88	0	2041	2043	2038	2051	
89	0	2045	2048	2041	2045	
90	0	2048	2046	2044	2042	
91	0	2049	2044	2054	2061	
92	0	2055	2054	2048	2050	
93	0	2053	2054	2043	2040	
94	0	2059	2053	2052	2050	
95	0	2058	2051	2055	2061	
96	0	2057	2050	2053	2062	
97	0	2055	2049	2051	2053	
98	0	2056	2057	2050	2042	
99	0	2050	2050	2049	2042	
100	0	2050	2048	2050	2049	
101	0	2049	2045	2049	2055	
102	0	2048	2042	2049	2049	
103	0	2045	2048	2050	2044	
104	0	2045	2049	2048	2037	
105	0	2039	2045	2043	2040	
106	0	2036	2042	2050	2049	
107	0	2039	2044	2048	2046	
108	0	2047	2042	2041	2053	
109	0	2049	2047	2048	2040	
110	0	2051	2050	2043	2035	
111	0	2049	2045	2030	2047	
112	0	2047	2048	2049	2054	
113	0	2055	2052	2046	2052	
114	0	2055	2059	2042	2044	
115	0	2056	2058	2058	2043	
116	0	2057	2052	2054	2042	
117	0	2054	2049	2042	2046	
118	0	2058	2051	2061	2058	
119	0	2053	2048	2058	2059	
120	0	2052	2053	2052	2057	
121	0	2050	2057	2048	2048	
122	0	2045	2052	2041	2045	
123	0	2048	2047	2056	2036	
124	0	2049	2047	2057	2035	
125	0	2049	2041	2036	2046	
126	0	2042	2044	2045	2059	
127	0	2039	2053	2047	2055	
128	0	2042	2049	2046	2049	
129	0	2039	2045	2040	2043	
130	0	2042	2049	2040	2048	
131	0	2052	2043	2042	2050	
132	0	2052	2050	2048	2047	
133	0	2048	2046	2051	2048	
134	0	2054	2051	2047	2054	
135	0	2057	2048	2043	2043	
136	0	2055	2048	2044	2051	
137	0	2060	2047	2046	2049	
138	0	2056	2052	2050	2047	
139	0	2054	2053	2055	2057	
140	0	2055	2047	2052	2044	
141	0	2051	2051	2051	2055	
142	0	2046	2042	2055	2044	
143	0	2047	2048	2056	2046	
144	0	2046	2050	2047	2039	
145	0	2045	2052	2049	2046	
146	0	2046	2050	2039	2049	
147	0	2044	2047	2045	2035	
148	0	2043	2052	2044	2039	
149	0	2048	2052	2040	2049	
150	0	2047	2049	2050	2051	
151	0	2051	2044	2053	2038	
152	0	2049	2047	2044	2042	
153	0	2049	2056	2052	2057	
154	0	2051	2050	2050	2046	
155	0	2052	2047	2052	2043	
156	0	2053	2047	2040	2053	
157	0	2052	2060	2046	2058	
158	0	2058	2058	2055	2053	
159	0	2056	2051	2056	2054	
160	0	2056	2051	2062	2051	
161	0	2053	2050	2046	2044	
162	0	2049	2049	2054	2044	
163	0	2047	2050	2048	2057	
164	0	2043	2045	2037	2058	
165	0	2043	2039	2043	2047	
166	0	2048	2046	2052	2046	
167	0	2048	2042	2057	2058	
168	0	2045	2041	2050	2049	
169	0	2047	2047	2054	2043	
170	0	2044	2048	2047	2052	
171	0	2045	2045	2051	2056	
172	0	2050	2048	2041	2051	
173	0	2052	2053	2056	2046	
174	0	2054	2051	2052	2058	
175	0	2053	2049	2053	2060	
176	0	2056	2046	2048	2056	
177	0	2060	2051	2047	2051	
178	0	2059	2055	2050	2044	
179	0	2057	2050	2041	2048	
180	0	2055	2051	2047	2047	
181	0	2055	2051	2048	2035	
182	0	2045	2052	2031	2029	
183	0	2040	2054	2037	2032	
184	0	2037	2046	2039	2043	
185	0	2034	2046	2030	2034	
186	0	2045	2057	2042	2028	
187	0	2042	2052	2043	2028	
188	0	2041	2049	2032	2028	
189	0	2044	2047	2042	2039	
190	0	2043	2056	2040	2041	
191	0	2043	2050	2040	2040	
192	0	2045	2046	2039	2037	
193	0	2047	2047	2042	2047	
194	0	2050	2054	2049	2054	
195	0	2053	2055	2036	2048	
196	0	2052	2049	2048	2042	
197	0	2052	2053	2044	2051	
198	0	2055	2054	2037	2060	
199	0	2053	2047	2053	2062	
200	0	2053	2044	2056	2057	
201	0	2052	2044	2045	2047	
202	0	2048	2047	2057	2050	
203	0	2047	2049	2058	2057	
204	0	2051	2043	2043	2057	
205	0	2048	2044	2052	2048	
206	0	2050	2052	2042	2042	
207	0	2045	2046	2048	2053	
208	0	2042	2043	2037	2055	
209	0	2043	2045	2052	2043	
210	0	2050	2053	2045	2047	
211	0	2045	2046	2057	2057	
212	0	2049	2044	2050	2055	
213	0	2051	2054	2057	2044	
214	0	2055	2054	2050	2052	
215	0	2061	2052	2057	2049	
216	0	2059	2055	2042	2038	
217	0	2058	2050	2057	2057	
218	0	2058	2057	2058	2044	
219	0	2059	2050	2058	2053	
220	0	2052	2051	2055	2053	
221	0	2047	2049	2037	2050	
222	0	2045	2044	2047	2052	
223	0	2040	2040	2050	2051	
224	0	2041	2040	2048	2053	
225	0	2040	2040	2043	2053	
226	0	2039	2045	2044	2042	
227	0	2044	2050	2047	2039	
228	0	2046	2047	2036	2037	
229	0	2048	2053	2050	2036	
230	0	2051	2054	2051	2043	
231	0	2052	2045	2045	2052	
232	0	2047	2050	2052	2055	
233	0	2049	2049	2051	2058	
234	0	2053	2055	2058	2047	
235	0	2055	2058	2058	2047	
236	0	2057	2050	2055	2054	
237	0	2053	2047	2049	2046	
238	0	2053	2051	2050	2045	
239	0	2054	2046	2037	2059	
240	0	2052	2048	2048	2053	
241	0	2048	2051	2050	2041	
242	0	2048	2049	2051	2046	
243	0	2047	2043	2038	2048	
244	0	2047	2050	2039	2044	
245	0	2043	2047	2038	2037	
246	0	2046	2046	2044	2047	
247	0	2045	2045	2048	2048	
248	0	2045	2053	2048	2047	
249	0	2046	2052	2050	2035	
250	0	2049	2049	2045	2044	
251	0	2050	2057	2054	2046	
252	0	2049	2048	2051	2053	
253	0	2052	2053	2043	2058	
254	0	2056	2052	2053	2054	
255	0	2056	2055	2057	2058	
256	0	2052	2048	2054	2057	
257	0	2055	2047	2054	2044	
258	0	2053	2046	2040	2042	
259	0	2050	2044	2048	2047	
260	0	2051	2046	2047	2048	
261	0	2044	2046	2038	2055	
262	0	2045	2051	2044	2042	
263	0	2045	2049	2040	2040	
264	0	2044	2047	2030	2050	
265	0	2045	2043	2039	2055	
266	0	2044	2048	2050	2043	
267	0	2044	2050	2053	2039	
268	0	2048	2049	2055	2041	
269	0	2046	2049	2045	2049	
270	0	2047	2045	2051	2054	
271	0	2052	2046	2047	2043	
272	0	2053	2046	2062	2043	
273	0	2056	2044	2050	2052	
274	0	2057	2047	2048	2056	
275	0	2057	2047	2054	2052	
276	0	2057	2051	2059	2043	
277	0	2056	2050	2051	2044	
278	0	2059	2049	2045	2052	
279	0	2049	2054	2049	2056	
280	0	2048	2050	2045	2048	
281	0	2047	2045	2040	2041	
282	0	2042	2043	2048	2051	
283	0	2045	2048	2042	2054	
284	0	2043	2049	2045	2050	
285	0	2041	2052	2037	2040	
286	0	2041	2046	2043	2034	
287	0	2042	2042	2035	2038	
288	0	2048	2048	2043	2048	
289	0	2050	2053	2051	2048	
290	0	2047	2051	2044	2042	
291	0	2053	2055	2054	2038	
292	0	2055	2059	2045	2036	
293	0	2049	2054	2053	2047	
294	0	2051	2047	2054	2057	
295	0	2055	2049	2056	2055	
296	0	2055	2052	2053	2043	
297	0	2053	2049	2054	2045	
298	0	2058	2056	2049	2052	
299	0	2054	2051	2039	2054	
300	0	2049	2053	2048	2056	
301	0	2052	2050	2042	2040	
302	0	2050	2048	2052	2043	
303	0	2049	2047	2050	2049	
304	0	2041	2049	2038	2051	
305	0	2041	2047	2042	2042	
306	0	2041	2049	2040	2042	
307	0	2039	2051	2046	2044	
308	0	2046	2045	2045	2051	
309	0	2048	2047	2048	2053	
310	0	2051	2046	2047	2049	
311	0	2050	2048	2042	2035	
312	0	2051	2058	2048	2045	
313	0	2049	2051	2051	2058	
314	0	2049	2049	2049	2056	
315	0	2056	2051	2053	2046	
316	0	2056	2051	2041	2048	
317	0	2058	2053	2049	2053	
318	0	2054	2056	2051	2061	
319	0	2055	2046	2054	2053	
320	0	2049	2045	2052	2043	
321	0	2050	2048	2042	2043	
322	0	2046	2048	2053	2048	
323	0	2043	2054	2048	2051	
324	0	2044	2049	2036	2034	
325	0	2044	2045	2041	2040	
326	0	2047	2043	2045	2043	
327	0	2044	2048	2049	2052	
328	0	2043	2044	2050	2050	
329	0	2045	2050	2040	2035	
330	0	2050	2051	2048	2044	
331	0	2049	2043	2051	2054	
332	0	2049	2044	2046	2059	
333	0	2053	2046	2051	2045	
334	0	2051	2047	2043	2048	
335	0	2054	2053	2057	2053	
336	0	2052	2046	2058	2057	
337	0	2059	2046	2047	2043	
338	0	2055	2056	2049	2051	
339	0	2050	2053	2051	2057	
340	0	2051	2050	2046	2045	
341	0	2050	2047	2048	2037	
342	0	2048	2049	2040	2048	
343	0	2042	2051	2046	2051	
344	0	2043	2050	2046	2039	
345	0	2039	2046	2039	2037	
346	0	2041	2045	2035	2045	
347	0	2046	2045	2035	2049	
348	0	2048	2049	2051	2042	
349	0	2049	2052	2050	2036	
350	0	2050	2056	2049	2047	
351	0	2050	2050	2050	2054	
352	0	2053	2049	2049	2051	
353	0	2055	2052	2055	2044	
354	0	2053	2053	2056	2046	
355	0	2060	2054	2047	2050	
356	0	2055	2058	2052	2058	
357	0	2059	2054	2050	2057	
358	0	2054	2053	2053	2043	
359	0	2048	2044	2053	2054	
360	0	2050	2052	2047	2057	
361	0	2049	2048	2050	2051	
362	0	2046	2043	2046	2043	
363	0	2043	2042	2053	2043	
364	0	2044	2044	2052	2050	
365	0	2042	2048	2038	2043	
366	0	2045	2052	2048	2038	
367	0	2043	2046	2050	2037	
368	0	2045	2042	2045	2042	
369	0	2049	2045	2046	2052	
370	0	2047	2046	2046	2052	
371	0	2050	2047	2052	2040	
372	0	2050	2051	2046	2041	
373	0	2051	2054	2036	2054	
374	0	2053	2046	2044	2061	
375	0	2055	2048	2037	2052	
376	0	2054	2053	2048	2044	
377	0	2058	2056	2055	2048	
378	0	2057	2056	2046	2055	
379	0	2058	2054	2057	2054	
380	0	2054	2046	2058	2043	
381	0	2049	2045	2053	2046	
382	0	2048	2048	2051	2050	
383	0	2045	2047	2047	2051	
384	0	2040	2047	2052	2043	
385	0	2040	2046	2048	2041	
386	0	2040	2039	2037	2044	
387	0	2039	2046	2044	2047	
388	0	2045	2048	2047	2045	
389	0	2046	2053	2046	2035	
390	0	2052	2050	2050	2040	
391	0	2052	2049	2046	2045	
392	0	2053	2049	2055	2052	
393	0	2053	2050	2050	2055	
394	0	2052	2054	2044	2039	
395	0	2048	2056	2055	2046	
396	0	2054	2051	2052	2057	
397	0	2056	2050	2039	2053	
398	0	2053	2051	2047	2044	
399	0	2051	2054	2047	2047	
400	0	2052	2057	2037	2053	
401	0	2051	2047	2048	2057	
402	0	2051	2043	2046	2057	
403	0	2046	2048	2041	2039	
404	0	2047	2049	2050	2037	
405	0	2047	2052	2053	2045	
406	0	2047	2041	2037	2051	
407	0	2045	2040	2046	2044	
408	0	2043	2044	2048	2041	
409	0	2044	2050	2044	2047	
410	0	2048	2053	2051	2049	
411	0	2051	2049	2056	2055	
412	0	2054	2046	2062	2043	
413	0	2055	2051	2055	2042	
414	0	2052	2055	2042	2044	
415	0	2052	2054	2047	2058	
416	0	2057	2056	2048	2059	
417	0	2050	2046	2049	2044	
418	0	2045	2049	2047	2041	
419	0	2044	2050	2037	2045	
420	0	2051	2052	2046	2056	
421	0	2052	2052	2052	2057	
422	0	2048	2052	2047	2044	
423	0	2047	2042	2052	2041	
424	0	2047	2045	2044	2037	
425	0	2047	2039	2050	2042	
426	0	2044	2045	2049	2050	
427	0	2039	2043	2035	2056	
428	0	2041	2045	2042	2050	
429	0	2044	2045	2047	2042	
430	0	2050	2045	2046	2042	
431	0	2051	2046	2049	2054	
432	0	2051	2051	2039	2055	
433	0	2051	2052	2051	2042	
434	0	2058	2066	2053	2037	
435	0	2060	2059	2050	2040	
436	0	2055	2048	2054	2052	
437	0	2050	2049	2057	2054	
438	0	2052	2052	2056	2049	
439	0	2052	2050	2050	2041	
440	0	2049	2045	2049	2051	
441	0	2050	2046	2052	2060	
442	0	2050	2049	2044	2041	
443	0	2047	2048	2048	2038	
444	0	2041	2044	2044	2047	
445	0	2046	2044	2032	2049	
446	0	2044	2049	2044	2044	
447	0	2047	2046	2045	2042	
448	0	2049	2044	2046	2048	
449	0	2051	2046	2050	2055	
450	0	2052	2052	2053	2048	
451	0	2049	2049	2055	2041	
452	0	2052	2048	2042	2050	
453	0	2050	2046	2055	2055	
454	0	2051	2056	2058	2049	
455	0	2054	2051	2050	2050	
456	0	2056	2050	2055	2045	
457	0	2057	2047	2052	2044	
458	0	2053	2059	2035	2058	
459	0	2052	2052	2040	2059	
460	0	2051	2046	2037	2047	
461	0	2051	2045	2050	2047	
462	0	2049	2055	2038	2050	
463	0	2045	2050	2051	2042	
464	0	2043	2044	2045	2040	
465	0	2040	2046	2053	2055	
466	0	2042	2046	2038	2049	
467	0	2039	2039	2046	2042	
468	0	2045	2041	2043	2055	
469	0	2043	2049	2044	2048	
470	0	2047	2049	2038	2041	
471	0	2054	2049	2048	2044	
472	0	2052	2046	2051	2051	
473	0	2054	2056	2059	2041	
474	0	2060	2056	2046	2040	
475	0	2057	2048	2059	2050	
476	0	2057	2047	2061	2056	
477	0	2058	2054	2046	2049	
478	0	2054	2050	2055	2042	
479	0	2054	2051	2052	2056	
480	0	2048	2049	2052	2050	
481	0	2046	2046	2050	2042	
482	0	2044	2046	2035	2051	
483	0	2046	2043	2045	2051	
484	0	2043	2051	2044	2039	
485	0	2042	2049	2035	2040	
486	0	2045	2043	2042	2054	
487	0	2046	2051	2041	2046	
488	0	2045	2049	2050	2037	
489	0	2047	2045	2038	2044	
490	0	2050	2049	2052	2054	
491	0	2052	2051	2044	2053	
492	0	2053	2049	2047	2041	
493	0	2051	2049	2053	2048	
494	0	2055	2052	2055	2059	
495	0	2055	2050	2055	2051	
496	0	2049	2050	2048	2042	
497	0	2052	2053	2045	2057	
498	0	2053	2049	2055	2054	
499	0	2056	2053	2050	2043	
500	0	2052	2050	2057	2052	
501	0	2052	2042	2041	2050	
502	0	2049	2045	2051	2046	
503	0	2050	2046	2048	2048	
504	0	2048	2043	2053	2046	
505	0	2043	2046	2039	2037	
506	0	2042	2051	2048	2041	
507	0	2046	2050	2048	2048	
508	0	2043	2042	2039	2055	
509	0	2046	2045	2052	2039	
510	0	2048	2050	2047	2039	
511	0	2049	2053	2037	2049	
512	0	2051	2053	2043	2060	
513	0	2054	2046	2053	2048	
514	0	2049	2045	2045	2046	
515	0	2048	2046	2048	2049	
516	0	2052	2050	2055	2056	
517	0	2054	2054	2050	2055	
518	0	2052	2050	2054	2057	
519	0	2055	2048	2049	2050	
520	0	2052	2050	2050	2044	
521	0	2053	2054	2040	2051	
522	0	2047	2049	2048	2052	
523	0	2052	2045	2050	2047	
524	0	2051	2053	2052	2035	
525	0	2047	2050	2036	2041	
526	0	2046	2046	2053	2051	
527	0	2048	2048	2044	2049	
528	0	2044	2045	2053	2037	
529	0	2043	2045	2042	2047	
530	0	2046	2045	2053	2051	
531	0	2049	2053	2046	2043	
532	0	2051	2043	2054	2044	
533	0	2049	2044	2039	2054	
534	0	2057	2055	2051	2048	
535	0	2058	2050	2055	2044	
536	0	2058	2051	2049	2059	
537	0	2059	2053	2053	2048	
538	0	2049	2051	2045	2042	
539	0	2050	2046	2050	2057	
540	0	2054	2050	2044	2056	
541	0	2046	2048	2038	2042	
542	0	2046	2046	2039	2040	
543	0	2041	2047	2049	2050	
544	0	2047	2050	2052	2050	
545	0	2044	2044	2047	2036	
546	0	2044	2047	2039	2049	
547	0	2044	2045	2052	2051	
548	0	2041	2043	2046	2042	
549	0	2047	2047	2051	2042	
550	0	2048	2050	2042	2051	
551	0	2049	2049	2052	2045	
552	0	2050	2050	2047	2041	
553	0	2050	2050	2041	2050	
554	0	2055	2047	2036	2052	
555	0	2058	2057	2049	2042	
556	0	2060	2050	2050	2052	
557	0	2053	2050	2053	2057	
558	0	2055	2055	2049	2044	
559	0	2053	2050	2043	2043	
560	0	2050	2042	2054	2055	
561	0	2047	2048	2051	2051	
562	0	2044	2051	2045	2040	
563	0	2048	2048	2042	2043	
564	0	2049	2056	2049	2050	
565	0	2043	2052	2044	2044	
566	0	2044	2044	2058	2040	
567	0	2047	2052	2043	2056	
568	0	2047	2048	2054	2051	
569	0	2050	2044	2055	2036	
570	0	2050	2048	2054	2042	
571	0	2048	2049	2039	2056	
572	0	2048	2042	2046	2057	
573	0	2049	2045	2042	2045	
574	0	2055	2059	2045	2046	
575	0	2054	2053	2048	2056	
576	0	2050	2045	2048	2053	
577	0	2052	2051	2051	2044	
578	0	2053	2046	2044	2058	
579	0	2051	2048	2039	2050	
580	0	2049	2053	2053	2040	
581	0	2051	2047	2047	2051	
582	0	2050	2049	2045	2051	
583	0	2046	2053	2044	2048	
584	0	2044	2048	2040	2039	
585	0	2044	2046	2043	2040	
586	0	2042	2047	2027	2047	
587	0	2046	2049	2039	2044	
588	0	2048	2050	2045	2038	
589	0	2049	2045	2052	2043	
590	0	2050	2054	2048	2051	
591	0	2052	2052	2054	2047	
592	0	2053	2046	2057	2042	
593	0	2057	2047	2054	2045	
594	0	2054	2052	2042	2057	
595	0	2053	2049	2058	2056	
596	0	2054	2053	2049	2048	
597	0	2051	2053	2046	2041	
598	0	2049	2050	2046	2050	
599	0	2051	2046	2049	2060	
600	0	2049	2049	2046	2053	
601	0	2046	2049	2046	2043	
602	0	2048	2042	2045	2052	
603	0	2046	2053	2051	2046	
604	0	2044	2046	2045	2039	
605	0	2041	2043	2051	2040	
606	0	2044	2050	2045	2052	
607	0	2042	2046	2048	2048	
608	0	2043	2044	2051	2043	
609	0	2045	2053	2044	2044	
610	0	2051	2052	2047	2046	
611	0	2049	2047	2047	2039	
612	0	2053	2046	2037	2051	
613	0	2051	2049	2043	2058	
614	0	2056	2053	2050	2052	
615	0	2058	2057	2052	2044	
616	0	2053	2048	2050	2047	
617	0	2053	2047	2055	2058	
618	0	2055	2046	2057	2055	
619	0	2052	2050	2052	2045	
620	0	2050	2053	2046	2047	
621	0	2046	2044	2049	2050	
622	0	2047	2046	2046	2053	
623	0	2045	2047	2038	2040	
624	0	2047	2045	2040	2033	
625	0	2044	2048	2042	2043	
626	0	2044	2050	2049	2048	
627	0	2044	2052	2046	2049	
628	0	2046	2052	2045	2037	
629	0	2049	2048	2048	2037	
630	0	2047	2054	2038	2052	
631	0	2049	2047	2054	2052	
632	0	2051	2044	2053	2040	
633	0	2049	2053	2055	2051	
634	0	2055	2050	2041	2051	
635	0	2058	2046	2053	2045	
636	0	2060	2052	2051	2048	
637	0	2053	2049	2055	2055	
638	0	2059	2048	2046	2043	
639	0	2056	2055	2055	2044	
640	0	2050	2049	2052	2054	
641	0	2046	2042	2050	2050	
642	0	2043	2053	2042	2043	
643	0	2042	2056	2044	2037	
644	0	2040	2053	2033	2043	
645	0	2044	2050	2044	2047	
646	0	2047	2049	2044	2052	
647	0	2046	2051	2037	2039	
648	0	2043	2047	2043	2036	
649	0	2049	2052	2038	2042	
650	0	2047	2049	2049	2046	
651	0	2054	2044	2056	2055	
652	0	2053	2045	2053	2046	
653	0	2054	2050	2055	2040	
654	0	2057	2050	2046	2047	
655	0	2053	2054	2060	2058	
656	0	2054	2047	2055	2059	
657	0	2051	2045	2042	2042	
658	0	2052	2044	2051	2042	
659	0	2050	2047	2051	2056	
660	0	2045	2047	2053	2057	
661	0	2049	2054	2050	2050	
662	0	2051	2065	2046	2036	
663	0	2049	2055	2052	2036	
664	0	2049	2047	2040	2045	
665	0	2044	2044	2040	2051	
666	0	2042	2043	2032	2053	
667	0	2044	2049	2039	2049	
668	0	2048	2049	2050	2041	
669	0	2048	2052	2052	2041	
670	0	2046	2050	2050	2052	
671	0	2046	2043	2039	2056	
672	0	2052	2042	2045	2052	
673	0	2053	2048	2053	2041	
674	0	2054	2051	2058	2046	
675	0	2060	2054	2057	2052	
676	0	2053	2048	2044	2061	
677	0	2050	2047	2052	2047	
678	0	2050	2048	2044	2046	
679	0	2048	2048	2033	2044	
680	0	2049	2055	2048	2053	
681	0	2053	2053	2055	2050	
682	0	2049	2050	2056	2042	
683	0	2047	2045	2047	2040	
684	0	2044	2044	2037	2043	
685	0	2041	2045	2047	2044	
686	0	2040	2044	2040	2047	
687	0	2042	2046	2052	2042	
688	0	2049	2051	2055	2038	
689	0	2050	2051	2046	2042	
690	0	2050	2048	2048	2041	
691	0	2050	2044	2043	2048	
692	0	2051	2044	2055	2056	
693	0	2054	2044	2053	2049	
694	0	2053	2050	2037	2039	
695	0	2053	2055	2041	2038	
696	0	2053	2057	2041	2054	
697	0	2056	2050	2050	2061	
698	0	2050	2046	2054	2057	
699	0	2051	2047	2054	2051	
700	0	2049	2046	2055	2044	
701	0	2050	2043	2052	2050	
702	0	2048	2050	2050	2043	
703	0	2045	2049	2039	2046	
704	0	2045	2051	2049	2049	
705	0	2046	2054	2042	2049	
706	0	2043	2048	2042	2043	
707	0	2043	2043	2048	2039	
708	0	2044	2042	2039	2046	
709	0	2045	2047	2045	2053	
710	0	2047	2049	2052	2053	
711	0	2050	2054	2056	2043	
712	0	2049	2051	2054	2042	
713	0	2053	2048	2043	2046	
714	0	2054	2046	2056	2057	
715	0	2054	2047	2057	2058	
716	0	2054	2053	2046	2052	
717	0	2056	2053	2049	2043	
718	0	2055	2054	2052	2044	
719	0	2053	2048	2047	2050	
720	0	2051	2048	2043	2055	
721	0	2051	2048	2043	2054	
722	0	2050	2050	2047	2044	
723	0	2048	2048	2039	2036	
724	0	2044	2049	2044	2041	
725	0	2043	2048	2049	2050	
726	0	2043	2042	2052	2046	
727	0	2042	2043	2046	2045	
728	0	2046	2046	2045	2036	
729	0	2045	2048	2049	2039	
730	0	2051	2049	2045	2050	
731	0	2055	2054	2048	2048	
732	0	2050	2056	2042	2054	
733	0	2053	2051	2050	2056	
734	0	2051	2048	2049	2046	
735	0	2055	2051	2049	2044	
736	0	2054	2048	2049	2051	
737	0	2053	2053	2039	2055	
738	0	2054	2052	2046	2056	
739	0	2052	2058	2053	2048	
740	0	2050	2051	2051	2041	
741	0	2050	2045	2051	2041	
742	0	2049	2040	2040	2046	
743	0	2046	2046	2047	2050	
744	0	2048	2044	2042	2048	
745	0	2047	2046	2050	2049	
746	0	2046	2051	2052	2040	
747	0	2045	2046	2052	2034	
748	0	2041	2052	2050	2042	
749	0	2045	2044	2039	2049	
750	0	2049	2046	2043	2055	
751	0	2049	2046	2047	2048	
752	0	2050	2052	2051	2043	
753	0	2054	2055	2048	2052	
754	0	2056	2050	2045	2053	
755	0	2055	2052	2057	2046	
756	0	2052	2047	2055	2043	
757	0	2055	2052	2047	2049	
758	0	2056	2051	2049	2052	
759	0	2052	2052	2046	2058	
760	0	2053	2052	2056	2058	
761	0	2048	2046	2052	2045	
762	0	2050	2048	2047	2044	
763	0	2048	2046	2048	2040	
764	0	2048	2050	2039	2046	
765	0	2041	2051	2049	2055	
766	0	2041	2044	2044	2053	
767	0	2044	2044	2039	2041	
768	0	2044	2046	2043	2034	
769	0	2041	2049	2037	2036	
770	0	2046	2051	2045	2041	
771	0	2050	2053	2049	2048	
772	0	2054	2054	2053	2055	
773	0	2055	2055	2050	2055	
774	0	2059	2049	2056	2044	
775	0	2060	2050	2060	2042	
776	0	2055	2049	2053	2050	
777	0	2053	2046	2053	2054	
778	0	2056	2048	2043	2054	
779	0	2054	2047	2047	2059	
780	0	2052	2049	2041	2055	
781	0	2050	2044	2046	2043	
782	0	2047	2053	2044	2041	
783	0	2042	2047	2050	2045	
784	0	2041	2042	2047	2049	
785	0	2039	2040	2038	2052	
786	0	2038	2039	2045	2041	
787	0	2041	2040	2039	2038	
788	0	2042	2043	2048	2041	
789	0	2046	2050	2050	2049	
790	0	2048	2053	2054	2051	
791	0	2053	2052	2058	2047	
792	0	2057	2052	2052	2046	
793	0	2056	2051	2055	2046	
794	0	2054	2051	2041	2045	
795	0	2057	2056	2052	2047	
796	0	2051	2051	2051	2052	
797	0	2057	2056	2054	2057	
798	0	2053	2059	2048	2049	
799	0	2056	2057	2036	2046	
800	0	2053	2052	2046	2040	
801	0	2050	2041	2034	2043	
802	0	2051	2043	2048	2044	
803	0	2050	2044	2044	2049	
804	0	2046	2046	2050	2056	
805	0	2043	2044	2047	2044	
806	0	2042	2048	2038	2037	
807	0	2042	2050	2049	2039	
808	0	2042	2052	2041	2043	
809	0	2043	2045	2048	2050	
810	0	2044	2044	2053	2051	
811	0	2047	2045	2052	2049	
812	0	2059	2044	2055	2046	
813	0	2055	2047	2054	2041	
814	0	2052	2048	2055	2041	
815	0	2055	2047	2056	2045	
816	0	2048	2051	2058	2056	
817	0	2052	2055	2043	2059	
818	0	2052	2054	2049	2057	
819	0	2051	2058	2038	2050	
820	0	2053	2056	2035	2039	
821	0	2050	2052	2034	2040	
822	0	2047	2048	2044	2041	
823	0	2042	2047	2046	2047	
824	0	2046	2045	2039	2048	
825	0	2044	2045	2047	2037	
826	0	2044	2046	2038	2035	
827	0	2040	2044	2046	2041	
828	0	2047	2047	2049	2049	
829	0	2049	2049	2053	2052	
830	0	2052	2051	2053	2055	
831	0	2054	2047	2043	2052	
832	0	2055	2046	2055	2044	
833	0	2054	2048	2045	2039	
834	0	2058	2051	2049	2047	
835	0	2056	2053	2055	2055	
836	0	2055	2052	2057	2053	
837	0	2054	2048	2053	2059	
838	0	2056	2052	2047	2046	
839	0	2050	2053	2049	2045	
840	0	2047	2046	2051	2054	
841	0	2048	2046	2052	2055	
842	0	2047	2046	2051	2045	
843	0	2045	2050	2041	2040	
844	0	2047	2050	2052	2040	
845	0	2050	2053	2050	2044	
846	0	2046	2049	2040	2049	
847	0	2044	2042	2048	2055	
848	0	2044	2040	2040	2042	
849	0	2044	2044	2044	2041	
850	0	2042	2043	2044	2041	
851	0	2046	2048	2030	2052	
852	0	2051	2053	2043	2054	
853	0	2054	2056	2049	2044	
854	0	2055	2048	2044	2047	
855	0	2054	2048	2048	2052	
856	0	2053	2051	2054	2055	
857	0	2054	2054	2050	2051	
858	0	2056	2054	2054	2045	
859	0	2048	2051	2041	2042	
860	0	2050	2056	2052	2045	
861	0	2054	2049	2040	2047	
862	0	2045	2048	2043	2051	
863	0	2045	2045	2044	2052	
864	0	2046	2043	2051	2044	
865	0	2044	2043	2047	2036	
866	0	2044	2049	2044	2041	
867	0	2047	2048	2049	2041	
868	0	2048	2046	2037	2047	
869	0	2048	2052	2050	2049	
870	0	2046	2053	2051	2049	
871	0	2048	2048	2040	2046	
872	0	2047	2044	2043	2042	
873	0	2049	2044	2055	2044	
874	0	2052	2046	2054	2050	
875	0	2056	2048	2057	2053	
876	0	2052	2050	2050	2062	
877	0	2055	2057	2048	2059	
878	0	2057	2059	2041	2046	
879	0	2054	2048	2050	2042	
880	0	2054	2050	2052	2047	
881	0	2053	2047	2055	2053	
882	0	2048	2049	2048	2054	
883	0	2048	2048	2038	2040	
884	0	2046	2048	2044	2040	
885	0	2043	2050	2045	2041	
886	0	2043	2046	2047	2049	
887	0	2039	2041	2049	2053	
888	0	2044	2042	2039	2044	
889	0	2044	2042	2047	2038	
890	0	2050	2049	2043	2039	
891	0	2049	2050	2049	2054	
892	0	2049	2061	2050	2057	
893	0	2049	2059	2051	2051	
894	0	2053	2053	2051	2041	
895	0	2055	2045	2043	2044	
896	0	2057	2046	2058	2056	
897	0	2056	2051	2048	2056	
898	0	2057	2057	2037	2048	
899	0	2050	2048	2054	2046	
900	0	2051	2044	2052	2046	
901	0	2049	2050	2037	2055	
902	0	2049	2052	2044	2041	
903	0	2048	2051	2052	2036	
904	0	2041	2050	2050	2042	
905	0	2042	2041	2048	2052	
906	0	2043	2038	2039	2051	
907	0	2041	2043	2048	2042	
908	0	2039	2045	2044	2038	
909	0	2043	2044	2049	2051	
910	0	2046	2052	2049	2052	
911	0	2050	2052	2045	2038	
912	0	2058	2049	2046	2039	
913	0	2058	2051	2045	2049	
914	0	2059	2050	2050	2057	
915	0	2059	2048	2060	2043	
916	0	2058	2055	2054	2041	
917	0	2055	2053	2053	2055	
918	0	2050	2048	2049	2054	
919	0	2050	2053	2050	2049	
920	0	2050	2052	2037	2046	
921	0	2050	2048	2052	2054	
922	0	2050	2048	2054	2047	
923	0	2046	2049	2052	2039	
924	0	2046	2044	2048	2046	
925	0	2045	2053	2039	2050	
926	0	2043	2046	2047	2038	
927	0	2041	2046	2044	2033	
928	0	2046	2054	2051	2049	
929	0	2046	2042	2040	2056	
930	0	2053	2043	2057	2048	
931	0	2055	2052	2052	2040	
932	0	2051	2047	2057	2045	
933	0	2050	2044	2047	2063	
934	0	2052	2052	2042	2047	
935	0	2050	2049	2049	2042	
936	0	2054	2049	2044	2060	
937	0	2054	2052	2046	2050	
938	0	2054	2048	2044	2043	
939	0	2053	2053	2053	2043	
940	0	2047	2053	2045	2057	
941	0	2046	2048	2052	2048	
942	0	2049	2046	2042	2041	
943	0	2049	2050	2050	2047	
944	0	2046	2042	2048	2052	
945	0	2048	2054	2047	2041	
946	0	2045	2049	2046	2040	
947	0	2047	2042	2037	2050	
948	0	2043	2053	2038	2041	
949	0	2048	2044	2046	2037	
950	0	2048	2045	2047	2053	
951	0	2049	2052	2057	2052	
952	0	2049	2047	2041	2049	
953	0	2053	2046	2049	2046	
954	0	2054	2048	2044	2047	
955	0	2056	2053	2053	2058	
956	0	2053	2049	2042	2056	
957	0	2054	2050	2054	2047	
958	0	2053	2051	2052	2048	
959	0	2054	2044	2043	2057	
960	0	2054	2057	2050	2043	
961	0	2053	2048	2037	2042	
962	0	2048	2045	2038	2052	
963	0	2046	2048	2051	2044	
964	0	2046	2045	2048	2039	
965	0	2041	2047	2048	2047	
966	0	2045	2050	2037	2048	
967	0	2042	2044	2049	2042	
968	0	2044	2044	2052	2038	
969	0	2047	2052	2052	2050	
970	0	2048	2045	2043	2052	
971	0	2051	2048	2054	2044	
972	0	2048	2055	2050	2037	
973	0	2050	2050	2053	2038	
974	0	2049	2044	2042	2054	
975	0	2055	2052	2053	2054	
976	0	2053	2053	2051	2046	
977	0	2055	2048	2057	2048	
978	0	2056	2051	2049	2068	
979	0	2055	2052	2043	2059	
980	0	2053	2048	2053	2049	
981	0	2052	2049	2049	2051	
982	0	2050	2053	2054	2059	
983	0	2049	2045	2046	2056	
984	0	2045	2042	2060	2048	
985	0	2047	2051	2053	2051	
986	0	2043	2048	2056	2056	
987	0	2045	2043	2048	2052	
988	0	2049	2051	2055	2047	
989	0	2045	2044	2049	2050	
990	0	2046	2044	2053	2058	
991	0	2050	2048	2043	2052	
992	0	2050	2050	2044	2046	
993	0	2055	2044	2053	2049	
994	0	2054	2054	2044	2058	
995	0	2056	2053	2051	2054	
996	0	2056	2047	2046	2041	
997	0	2055	2054	2050	2044	
998	0	2056	2052	2056	2048	
999	0	2055	2053	2048	2038	
1000	0	2052	2056	2045	2028	
1001	0	2047	2052	2041	2044	
1002	0	2041	2048	2036	2040	
1003	0	2041	2048	2037	2040	
1004	0	2042	2048	2037	2025	
1005	0	2041	2049	2035	2021	
1006	0	2041	2048	2034	2032	
1007	0	2041	2052	2019	2038	
1008	0	2041	2043	2040	2041	
1009	0	2041	2041	2045	2028	
1010	0	2036	2041	2040	2039	
1011	0	2043	2040	2037	2050	
1012	0	2046	2045	2031	2058	
1013	0	2054	2053	2047	2045	
1014	0	2057	2048	2053	2051	
1015	0	2057	2042	2045	2061	
1016	0	2054	2048	2053	2066	
1017	0	2057	2061	2056	2055	
1018	0	2053	2065	2055	2039	
1019	0	2054	2057	2054	2050	
1020	0	2048	2045	2038	2066	
1021	0	2049	2044	2048	2055	
1022	0	2047	2053	2050	2050	
1023	0	2048	2046	2038	2055	
1024	0	2046	2040	2046	2058	
1025	0	2042	2041	2045	2045	
1026	0	2045	2046	2054	2045	
1027	0	2047	2052	2055	2050	
1028	0	2043	2044	2047	2051	
1029	0	2042	2045	2052	2051	
1030	0	2051	2044	2053	2045	
1031	0	2052	2045	2053	2045	
1032	0	2055	2054	2054	2052	
1033	0	2055	2050	2044	2052	
1034	0	2057	2045	2059	2040	
1035	0	2058	2044	2055	2046	
1036	0	2057	2048	2044	2061	
1037	0	2056	2053	2053	2054	
1038	0	2059	2052	2049	2042	
1039	0	2054	2049	2060	2036	
1040	0	2051	2054	2048	2046	
1041	0	2049	2056	2039	2054	
1042	0	2049	2053	2047	2055	
1043	0	2043	2047	2050	2038	
1044	0	2044	2046	2041	2039	
1045	0	2043	2046	2044	2050	
1046	0	2043	2050	2048	2052	
1047	0	2047	2052	2054	2049	
1048	0	2041	2043	2054	2038	
1049	0	2044	2047	2041	2038	
1050	0	2050	2048	2048	2048	
1051	0	2051	2054	2049	2054	
1052	0	2049	2053	2047	2048	
1053	0	2057	2050	2049	2044	
1054	0	2055	2047	2054	2052	
1055	0	2053	2049	2053	2053	
1056	0	2054	2048	2044	2049	
1057	0	2051	2046	2053	2053	
1058	0	2053	2042	2055	2058	
1059	0	2052	2049	2050	2047	
1060	0	2047	2048	2047	2042	
1061	0	2050	2046	2052	2049	
1062	0	2052	2048	2048	2054	
1063	0	2046	2052	2040	2037	
1064	0	2042	2050	2044	2037	
1065	0	2040	2051	2041	2033	
1066	0	2039	2042	2034	2045	
1067	0	2048	2047	2048	2049	
1068	0	2049	2050	2050	2041	
1069	0	2048	2049	2041	2046	
1070	0	2048	2046	2052	2055	
1071	0	2049	2053	2041	2043	
1072	0	2052	2045	2049	2049	
1073	0	2052	2049	2052	2061	
1074	0	2052	2049	2053	2047	
1075	0	2055	2048	2059	2050	
1076	0	2052	2053	2047	2063	
1077	0	2054	2055	2038	2043	
1078	0	2053	2047	2049	2042	
1079	0	2053	2055	2059	2052	
1080	0	2053	2052	2052	2038	
1081	0	2050	2045	2049	2039	
1082	0	2047	2053	2035	2053	
1083	0	2046	2046	2050	2047	
1084	0	2045	2044	2049	2039	
1085	0	2045	2048	2050	2057	
1086	0	2045	2047	2040	2048	
1087	0	2044	2047	2045	2041	
1088	0	2045	2051	2042	2037	
1089	0	2048	2047	2047	2046	
1090	0	2047	2043	2049	2050	
1091	0	2048	2044	2049	2043	
1092	0	2046	2048	2047	2046	
1093	0	2053	2049	2055	2049	
1094	0	2056	2044	2046	2058	
1095	0	2058	2050	2056	2048	
1096	0	2056	2054	2054	2042	
1097	0	2058	2052	2055	2052	
1098	0	2055	2050	2046	2053	
1099	0	2053	2049	2051	2052	
1100	0	2052	2055	2042	2051	
1101	0	2045	2049	2046	2038	
1102	0	2050	2048	2037	2044	
1103	0	2042	2051	2047	2051	
1104	0	2044	2046	2052	2044	
1105	0	2040	2044	2049	2042	
1106	0	2042	2052	2041	2053	
1107	0	2045	2047	2042	2050	
1108	0	2046	2043	2049	2044	
1109	0	2047	2046	2054	2045	
1110	0	2047	2050	2044	2055	
1111	0	2055	2049	2042	2048	
1112	0	2053	2049	2052	2043	
1113	0	2050	2052	2051	2042	
1114	0	2051	2052	2045	2045	
1115	0	2052	2045	2057	2053	
1116	0	2054	2045	2053	2056	
1117	0	2051	2050	2053	2051	
1118	0	2057	2057	2041	2043	
1119	0	2051	2050	2051	2042	
1120	0	2048	2045	2044	2054	
1121	0	2050	2046	2050	2054	
1122	0	2049	2053	2040	2042	
1123	0	2044	2048	2046	2039	
1124	0	2043	2044	2043	2054	
1125	0	2047	2049	2047	2048	
1126	0	2042	2050	2035	2036	
1127	0	2045	2048	2050	2037	
1128	0	2049	2052	2049	2049	
1129	0	2051	2052	2051	2050	
1130	0	2053	2045	2040	2049	
1131	0	2051	2047	2050	2042	
1132	0	2046	2052	2050	2042	
1133	0	2049	2049	2048	2046	
1134	0	2050	2045	2043	2055	
1135	0	2056	2047	2051	2055	
1136	0	2056	2056	2049	2050	
1137	0	2057	2050	2044	2044	
1138	0	2057	2048	2055	2055	
1139	0	2052	2047	2047	2057	
1140	0	2048	2056	2043	2052	
1141	0	2047	2048	2047	2049	
1142	0	2045	2050	2045	2041	
1143	0	2051	2046	2051	2041	
1144	0	2047	2048	2043	2050	
1145	0	2043	2052	2049	2051	
1146	0	2047	2045	2049	2046	
1147	0	2046	2044	2041	2040	
1148	0	2048	2054	2048	2043	
1149	0	2050	2049	2051	2053	
1150	0	2050	2044	2046	2049	
1151	0	2049	2050	2043	2042	
1152	0	2048	2050	2051	2042	
1153	0	2053	2047	2052	2054	
1154	0	2051	2047	2054	2056	
1155	0	2052	2048	2049	2048	
1156	0	2049	2044	2055	2046	
1157	0	2053	2044	2051	2059	
1158	0	2052	2054	2050	2057	
1159	0	2052	2055	2040	2046	
1160	0	2048	2054	2029	2036	
1161	0	2051	2049	2040	2040	
1162	0	2048	2053	2048	2047	
1163	0	2043	2051	2036	2044	
1164	0	2042	2042	2049	2036	
1165	0	2046	2049	2049	2041	
1166	0	2048	2054	2049	2055	
1167	0	2046	2047	2040	2049	
1168	0	2045	2040	2048	2040	
1169	0	2044	2050	2044	2038	
1170	0	2049	2049	2052	2054	
1171	0	2052	2048	2045	2051	
1172	0	2051	2052	2055	2043	
1173	0	2051	2050	2054	2046	
1174	0	2056	2046	2062	2056	
1175	0	2060	2049	2055	2050	
1176	0	2057	2051	2070	2057	
1177	0	2061	2048	2058	2044	
1178	0	2060	2051	2060	2051	
1179	0	2056	2056	2046	2057	
1180	0	2052	2050	2051	2043	
1181	0	2050	2049	2042	2044	
1182	0	2046	2053	2030	2054	
1183	0	2037	2044	2030	2050	
1184	0	2038	2043	2015	2040	
1185	0	2036	2048	2027	2044	
1186	0	2041	2041	2036	2051	
1187	0	2044	2038	2050	2044	
1188	0	2044	2046	2045	2040	
1189	0	2048	2048	2052	2052	
1190	0	2051	2046	2057	2050	
1191	0	2053	2051	2051	2042	
1192	0	2051	2052	2052	2045	
1193	0	2054	2046	2044	2058	
1194	0	2055	2048	2057	2060	
1195	0	2058	2053	2056	2048	
1196	0	2055	2051	2050	2044	
1197	0	2056	2048	2046	2055	
1198	0	2058	2053	2056	2051	
1199	0	2055	2054	2051	2043	
1200	0	2049	2049	2049	2039	
1201	0	2048	2055	2041	2055	
1202	0	2050	2048	2038	2043	
1203	0	2046	2044	2052	2037	
1204	0	2042	2048	2041	2051	
1205	0	2042	2046	2048	2046	
1206	0	2044	2046	2034	2034	
1207	0	2044	2050	2046	2055	
1208	0	2044	2051	2045	2046	
1209	0	2050	2046	2052	2038	
1210	0	2054	2051	2044	2053	
1211	0	2054	2052	2053	2053	
1212	0	2047	2047	2051	2047	
1213	0	2051	2051	2049	2048	
1214	0	2053	2051	2050	2055	
1215	0	2056	2051	2042	2049	
1216	0	2058	2056	2055	2051	
1217	0	2057	2048	2053	2057	
1218	0	2054	2048	2045	2044	
1219	0	2046	2048	2051	2042	
1220	0	2050	2045	2040	2051	
1221	0	2047	2046	2055	2050	
1222	0	2044	2049	2048	2038	
1223	0	2045	2044	2052	2036	
1224	0	2044	2038	2036	2054	
1225	0	2044	2050	2044	2049	
1226	0	2041	2043	2041	2037	
1227	0	2046	2041	2048	2050	
1228	0	2048	2049	2042	2049	
1229	0	2050	2046	2046	2039	
1230	0	2048	2049	2054	2040	
1231	0	2052	2054	2051	2059	
1232	0	2056	2048	2046	2057	
1233	0	2051	2046	2044	2038	
1234	0	2053	2057	2053	2057	
1235	0	2056	2053	2052	2053	
1236	0	2056	2049	2055	2043	
1237	0	2051	2050	2050	2048	
1238	0	2052	2052	2041	2044	
1239	0	2051	2051	2051	2055	
1240	0	2049	2050	2055	2054	
1241	0	2048	2047	2051	2045	
1242	0	2047	2042	2049	2035	
1243	0	2048	2043	2037	2046	
1244	0	2048	2044	2043	2048	
1245	0	2045	2050	2041	2053	
1246	0	2050	2052	2047	2051	
1247	0	2047	2050	2046	2044	
1248	0	2044	2051	2045	2041	
1249	0	2043	2051	2047	2043	
1250	0	2050	2046	2043	2050	
1251	0	2052	2050	2041	2051	
1252	0	2052	2056	2048	2038	
1253	0	2051	2055	2049	2038	
1254	0	2056	2054	2052	2045	
1255	0	2052	2054	2055	2054	
1256	0	2049	2049	2052	2058	
1257	0	2052	2046	2041	2058	
1258	0	2048	2039	2046	2056	
1259	0	2049	2038	2038	2052	
1260	0	2048	2044	2050	2043	
1261	0	2049	2048	2050	2044	
1262	0	2048	2050	2049	2046	
1263	0	2046	2055	2048	2047	
1264	0	2048	2056	2038	2054	
1265	0	2046	2056	2047	2050	
1266	0	2047	2057	2038	2047	
1267	0	2049	2051	2050	2037	
1268	0	2045	2043	2049	2036	
1269	0	2042	2042	2048	2040	
1270	0	2047	2041	2049	2052	
1271	0	2051	2045	2043	2061	
1272	0	2050	2047	2055	2064	
1273	0	2050	2051	2046	2051	
1274	0	2054	2053	2053	2045	
1275	0	2056	2060	2060	2047	
1276	0	2052	2055	2061	2053	
1277	0	2053	2050	2052	2046	
1278	0	2046	2055	2051	2039	
1279	0	2049	2049	2050	2044	
1280	0	2050	2047	2044	2050	
1281	0	2050	2053	2041	2042	
1282	0	2050	2052	2049	2038	
1283	0	2046	2056	2045	2040	
1284	0	2047	2049	2045	2037	
1285	0	2047	2042	2048	2053	
1286	0	2043	2051	2039	2043	
1287	0	2047	2047	2047	2037	
1288	0	2045	2040	2047	2053	
1289	0	2046	2050	2050	2047	
1290	0	2041	2042	2038	2043	
1291	0	2048	2043	2052	2053	
1292	0	2052	2053	2052	2054	
1293	0	2052	2047	2054	2045	
1294	0	2055	2043	2049	2048	
1295	0	2058	2052	2053	2054	
1296	0	2060	2052	2056	2042	
1297	0	2059	2061	2051	2047	
1298	0	2053	2056	2048	2047	
1299	0	2050	2049	2035	2049	
1300	0	2053	2050	2046	2053	
1301	0	2056	2044	2043	2058	
1302	0	2048	2044	2050	2057	
1303	0	2047	2043	2049	2052	
1304	0	2041	2044	2038	2046	
1305	0	2042	2038	2044	2047	
1306	0	2044	2045	2038	2040	
1307	0	2047	2044	2043	2046	
1308	0	2043	2047	2038	2051	
1309	0	2046	2045	2045	2044	
1310	0	2044	2051	2044	2029	
1311	0	2049	2056	2050	2029	
1312	0	2050	2059	2055	2037	
1313	0	2055	2057	2048	2052	
1314	0	2055	2052	2052	2063	
1315	0	2056	2050	2053	2049	
1316	0	2053	2051	2051	2045	
1317	0	2053	2049	2047	2056	
1318	0	2050	2044	2041	2060	
1319	0	2047	2044	2053	2053	
1320	0	2051	2043	2051	2048	
1321	0	2054	2047	2052	2042	
1322	0	2053	2054	2052	2045	
1323	0	2050	2048	2044	2055	
1324	0	2045	2043	2047	2051	
1325	0	2043	2046	2043	2034	
1326	0	2045	2049	2041	2046	
1327	0	2045	2051	2046	2048	
1328	0	2047	2042	2050	2051	
1329	0	2049	2043	2040	2040	
1330	0	2051	2045	2048	2040	
1331	0	2055	2049	2056	2051	
1332	0	2054	2050	2045	2058	
1333	0	2051	2049	2056	2049	
1334	0	2050	2046	2049	2050	
1335	0	2053	2054	2054	2057	
1336	0	2053	2052	2044	2052	
1337	0	2058	2050	2057	2046	
1338	0	2058	2058	2051	2048	
1339	0	2051	2048	2048	2057	
1340	0	2043	2047	2026	2045	
1341	0	2043	2053	2036	2036	
1342	0	2042	2049	2043	2055	
1343	0	2043	2043	2046	2050	
1344	0	2049	2048	2038	2035	
1345	0	2049	2050	2051	2041	
1346	0	2042	2046	2048	2049	
1347	0	2039	2049	2047	2040	
1348	0	2042	2053	2039	2031	
1349	0	2042	2050	2050	2043	
1350	0	2050	2055	2051	2051	
1351	0	2052	2045	2061	2049	
1352	0	2055	2041	2042	2053	
1353	0	2051	2052	2055	2059	
1354	0	2053	2045	2046	2052	
1355	0	2054	2048	2054	2041	
1356	0	2056	2058	2040	2052	
1357	0	2057	2051	2051	2054	
1358	0	2054	2055	2053	2047	
1359	0	2052	2051	2045	2055	
1360	0	2049	2047	2049	2049	
1361	0	2049	2053	2039	2036	
1362	0	2048	2049	2048	2050	
1363	0	2043	2051	2053	2050	
1364	0	2045	2046	2050	2045	
1365	0	2045	2040	2036	2044	
1366	0	2043	2045	2035	2051	
1367	0	2043	2043	2052	2039	
1368	0	2047	2042	2051	2040	
1369	0	2046	2051	2051	2053	
1370	0	2048	2048	2043	2048	
1371	0	2052	2047	2054	2037	
1372	0	2049	2056	2054	2044	
1373	0	2051	2048	2048	2050	
1374	0	2054	2055	2053	2044	
1375	0	2055	2053	2040	2040	
1376	0	2055	2049	2056	2051	
1377	0	2059	2050	2052	2066	
1378	0	2054	2055	2049	2056	
1379	0	2048	2049	2054	2045	
1380	0	2048	2044	2047	2048	
1381	0	2046	2051	2043	2052	
1382	0	2046	2044	2031	2043	
1383	0	2043	2044	2045	2037	
1384	0	2043	2047	2041	2052	
1385	0	2043	2045	2044	2050	
1386	0	2050	2046	2036	2038	
1387	0	2050	2056	2041	2034	
1388	0	2048	2048	2039	2044	
1389	0	2052	2047	2056	2053	
1390	0	2055	2051	2049	2055	
1391	0	2052	2052	2058	2043	
1392	0	2053	2046	2056	2039	
1393	0	2052	2048	2048	2058	
1394	0	2055	2051	2056	2056	
1395	0	2057	2050	2049	2040	
1396	0	2054	2053	2052	2041	
1397	0	2052	2055	2041	2050	
1398	0	2051	2051	2045	2056	
1399	0	2053	2046	2043	2046	
1400	0	2048	2052	2034	2042	
1401	0	2045	2047	2048	2041	
1402	0	2047	2043	2049	2046	
1403	0	2044	2046	2041	2052	
1404	0	2044	2049	2052	2037	
1405	0	2040	2043	2053	2035	
1406	0	2042	2050	2052	2054	
1407	0	2044	2047	2042	2053	
1408	0	2044	2042	2056	2048	
1409	0	2050	2049	2049	2034	
1410	0	2049	2053	2048	2043	
1411	0	2051	2050	2056	2054	
1412	0	2053	2047	2048	2055	
1413	0	2054	2057	2054	2042	
1414	0	2054	2044	2047	2046	
1415	0	2056	2045	2059	2065	
1416	0	2056	2055	2058	2054	
1417	0	2056	2053	2042	2046	
1418	0	2054	2049	2053	2051	
1419	0	2050	2052	2052	2062	
1420	0	2052	2045	2051	2052	
1421	0	2048	2044	2054	2059	
1422	0	2046	2052	2044	2041	
1423	0	2040	2055	2038	2038	
1424	0	2039	2045	2026	2060	
1425	0	2037	2044	2037	2049	
1426	0	2040	2048	2043	2034	
1427	0	2043	2043	2045	2044	
1428	0	2043	2040	2034	2045	
1429	0	2047	2057	2048	2040	
1430	0	2053	2055	2046	2036	
1431	0	2052	2047	2047	2038	
1432	0	2054	2049	2052	2052	
1433	0	2053	2050	2054	2053	
1434	0	2053	2044	2061	2046	
1435	0	2056	2050	2044	2039	
1436	0	2053	2055	2053	2046	
1437	0	2057	2049	2048	2056	
1438	0	2054	2054	2050	2049	
1439	0	2056	2058	2040	2053	
1440	0	2048	2051	2046	2050	
1441	0	2046	2037	2051	2061	
1442	0	2046	2050	2037	2052	
1443	0	2048	2047	2050	2046	
1444	0	2045	2045	2044	2038	
1445	0	2043	2054	2051	2045	
1446	0	2042	2047	2036	2047	
1447	0	2046	2042	2048	2039	
1448	0	2049	2052	2051	2032	
1449	0	2047	2047	2052	2053	
1450	0	2048	2044	2049	2045	
1451	0	2050	2048	2046	2054	
1452	0	2048	2039	2052	2068	
1453	0	2044	2045	2046	2060	
1454	0	2053	2058	2044	2047	
1455	0	2055	2053	2052	2042	
1456	0	2054	2052	2044	2046	
1457	0	2052	2044	2037	2060	
1458	0	2057	2054	2043	2057	
1459	0	2056	2052	2048	2040	
1460	0	2054	2049	2054	2033	
1461	0	2055	2054	2047	2033	
1462	0	2051	2057	2052	2047	
1463	0	2047	2047	2040	2057	
1464	0	2042	2050	2050	2044	
1465	0	2041	2046	2040	2033	
1466	0	2046	2046	2048	2049	
1467	0	2045	2055	2042	2052	
1468	0	2045	2048	2043	2047	
1469	0	2045	2044	2033	2038	
1470	0	2047	2051	2039	2049	
1471	0	2051	2054	2044	2054	
1472	0	2053	2046	2052	2051	
1473	0	2054	2056	2057	2048	
1474	0	2052	2051	2058	2040	
1475	0	2057	2043	2052	2049	
1476	0	2052	2046	2055	2055	
1477	0	2055	2050	2053	2054	
1478	0	2054	2048	2056	2050	
1479	0	2053	2045	2042	2038	
1480	0	2052	2056	2053	2040	
1481	0	2048	2050	2051	2049	
1482	0	2047	2048	2039	2048	
1483	0	2043	2050	2046	2041	
1484	0	2043	2048	2040	2043	
1485	0	2041	2045	2050	2051	
1486	0	2046	2050	2035	2044	
1487	0	2045	2050	2048	2034	
1488	0	2046	2045	2049	2062	
1489	0	2041	2051	2051	2069	
1490	0	2047	2043	2042	2051	
1491	0	2050	2043	2054	2039	
1492	0	2053	2049	2056	2063	
1493	0	2049	2042	2057	2049	
1494	0	2054	2046	2041	2039	
1495	0	2053	2049	2051	2044	
1496	0	2048	2052	2045	2052	
1497	0	2050	2058	2042	2037	
1498	0	2054	2062	2034	2029	
1499	0	2060	2056	2046	2056	
1500	0	2057	2050	2050	2056	
1501	0	2054	2056	2045	2051	
1502	0	2057	2051	2058	2039	
1503	0	2050	2046	2049	2044	
1504	0	2044	2044	2040	2052	
1505	0	2045	2052	2048	2040	
1506	0	2043	2044	2042	2040	
1507	0	2043	2041	2043	2051	
1508	0	2040	2055	2032	2049	
1509	0	2044	2048	2047	2040	
1510	0	2044	2039	2051	2037	
1511	0	2044	2045	2051	2054	
1512	0	2042	2044	2046	2061	
1513	0	2048	2038	2051	2039	
1514	0	2053	2050	2059	2057	
1515	0	2059	2047	2049	2070	
1516	0	2058	2049	2062	2050	
1517	0	2064	2063	2056	2033	
1518	0	2071	2066	2046	2044	
1519	0	2056	2041	2049	2057	
1520	0	2054	2045	2051	2040	
1521	0	2048	2044	2055	2030	
1522	0	2045	2050	2048	2049	
1523	0	2046	2054	2048	2044	
1524	0	2045	2059	2052	2034	
1525	0	2045	2058	2049	2043	
1526	0	2043	2052	2047	2043	
1527	0	2044	2044	2060	2041	
1528	0	2050	2058	2046	2059	
1529	0	2054	2061	2053	2051	
1530	0	2045	2042	2045	2061	
1531	0	2042	2040	2044	2063	
1532	0	2039	2027	2046	2073	
1533	0	2050	2042	2052	2056	
1534	0	2060	2054	2057	2049	
1535	0	2060	2054	2040	2047	
1536	0	2057	2054	2038	2055	
1537	0	2058	2061	2031	2052	
1538	0	2054	2056	2039	2055	
1539	0	2047	2046	2041	2054	
1540	0	2043	2054	2044	2041	
1541	0	2044	2038	2056	2031	
1542	0	2044	2026	2046	2040	
1543	0	2039	2042	2056	2046	
1544	0	2042	2041	2051	2042	
1545	0	2041	2036	2049	2036	
1546	0	2047	2048	2046	2040	
1547	0	2049	2063	2046	2039	
1548	0	2049	2069	2048	2028	
1549	0	2052	2066	2034	2034	
1550	0	2050	2055	2052	2039	
1551	0	2051	2049	2060	2042	
1552	0	2056	2049	2066	2055	
1553	0	2052	2052	2057	2066	
1554	0	2052	2045	2043	2038	
1555	0	2057	2053	2049	2028	
1556	0	2050	2040	2045	2050	
1557	0	2045	2044	2034	2059	
1558	0	2057	2051	2046	2045	
1559	0	2057	2052	2054	2039	
1560	0	2053	2044	2051	2070	
1561	0	2054	2039	2052	2078	
1562	0	2045	2032	2052	2063	
1563	0	2042	2040	2052	2037	
1564	0	2051	2048	2051	2033	
1565	0	2054	2055	2038	2048	
1566	0	2049	2061	2050	2065	
1567	0	2050	2064	2052	2044	
1568	0	2046	2062	2051	2025	
1569	0	2046	2050	2048	2044	
1570	0	2047	2044	2042	2053	
1571	0	2047	2047	2058	2060	
1572	0	2052	2048	2058	2059	
1573	0	2053	2046	2046	2055	
1574	0	2051	2047	2047	2057	
1575	0	2048	2047	2042	2069	
1576	0	2048	2037	2034	2066	
1577	0	2043	2043	2031	2046	
1578	0	2043	2044	2033	2042	
1579	0	2049	2046	2050	2023	
1580	0	2051	2049	2060	2027	
1581	0	2047	2048	2051	2050	
1582	0	2050	2041	2051	2072	
1583	0	2045	2026	2053	2040	
1584	0	2040	2018	2067	2048	
1585	0	2042	2018	2058	2087	
1586	0	2057	2040	2051	2069	
1587	0	2057	2065	2054	2045	
1588	0	2047	2084	2046	2022	
1589	0	2044	2101	2029	2013	
1590	0	2046	2083	2034	2016	
1591	0	2042	2066	2023	2024	
1592	0	2044	2056	2017	2019	
1593	0	2049	2061	2024	2020	
1594	0	2061	2067	2032	2024	
1595	0	2064	2066	2036	2040	
1596	0	2059	2051	2062	2038	
1597	0	2059	2043	2071	2043	
1598	0	2054	2042	2059	2061	
1599	0	2054	2047	2063	2067	
1600	0	2050	2044	2060	2055	
1601	0	2047	2044	2048	2051	
1602	0	2047	2041	2049	2050	
1603	0	2040	2036	2056	2059	
1604	0	2044	2037	2045	2054	
1605	0	2041	2039	2044	2044	
1606	0	2043	2040	2045	2050	
1607	0	2042	2047	2045	2056	
1608	0	2040	2039	2046	2050	
1609	0	2045	2040	2051	2048	
1610	0	2046	2038	2043	2060	
1611	0	2047	2048	2049	2058	
1612	0	2049	2044	2043	2062	
1613	0	2054	2045	2051	2061	
1614	0	2054	2049	2047	2053	
1615	0	2056	2048	2050	2045	
1616	0	2052	2046	2046	2062	
1617	0	2050	2051	2046	2054	
1618	0	2050	2051	2050	2052	
1619	0	2053	2043	2043	2038	
1620	0	2053	2049	2062	2052	
1621	0	2052	2046	2064	2063	
1622	0	2045	2036	2059	2067	
1623	0	2038	2037	2044	2060	
1624	0	2046	2051	2045	2043	
1625	0	2052	2051	2057	2034	
1626	0	2044	2042	2042	2046	
1627	0	2033	2048	2040	2039	
1628	0	2037	2048	2034	2024	
1629	0	2047	2052	2030	2023	
1630	0	2054	2058	2027	2031	
1631	0	2056	2065	2034	2031	
1632	0	2055	2056	2044	2043	
1633	0	2057	2056	2040	2059	
1634	0	2056	2054	2049	2050	
1635	0	2051	2048	2048	2040	
1636	0	2049	2046	2056	2051	
1637	0	2054	2058	2055	2061	
1638	0	2047	2041	2068	2059	
1639	0	2050	2040	2062	2055	
1640	0	2055	2057	2054	2051	
1641	0	2054	2054	2046	2033	
1642	0	2051	2053	2052	2032	
1643	0	2047	2054	2056	2041	
1644	0	2044	2042	2041	2050	
1645	0	2046	2044	2055	2039	
1646	0	2042	2049	2049	2041	
1647	0	2045	2047	2051	2044	
1648	0	2047	2050	2034	2029	
1649	0	2056	2052	2056	2039	
1650	0	2060	2046	2055	2055	
1651	0	2053	2045	2055	2052	
1652	0	2054	2052	2045	2044	
1653	0	2051	2051	2051	2054	
1654	0	2050	2046	2054	2065	
1655	0	2049	2047	2034	2060	
1656	0	2052	2051	2039	2048	
1657	0	2054	2049	2035	2066	
1658	0	2051	2049	2046	2067	
1659	0	2049	2047	2035	2057	
1660	0	2050	2044	2048	2055	
1661	0	2044	2041	2048	2058	
1662	0	2045	2052	2055	2043	
1663	0	2044	2042	2042	2039	
1664	0	2039	2047	2051	2041	
1665	0	2044	2060	2048	2044	
1666	0	2052	2061	2044	2050	
1667	0	2048	2050	2048	2046	
1668	0	2051	2056	2054	2033	
1669	0	2045	2039	2049	2049	
1670	0	2037	2022	2052	2059	
1671	0	2046	2038	2052	2044	
1672	0	2057	2044	2073	2035	
1673	0	2055	2046	2072	2044	
1674	0	2050	2058	2051	2045	
1675	0	2051	2050	2061	2040	
1676	0	2050	2045	2054	2046	
1677	0	2050	2058	2032	2059	
1678	0	2052	2053	2023	2057	
1679	0	2056	2052	2021	2041	
1680	0	2052	2057	2020	2028	
1681	0	2050	2054	2024	2040	
1682	0	2050	2049	2024	2049	
1683	0	2051	2053	2042	2046	
1684	0	2058	2051	2055	2040	
1685	0	2054	2042	2050	2046	
1686	0	2047	2046	2055	2059	
1687	0	2042	2046	2042	2052	
1688	0	2042	2044	2054	2041	
1689	0	2047	2046	2062	2037	
1690	0	2052	2045	2058	2051	
1691	0	2050	2038	2060	2051	
1692	0	2047	2046	2046	2049	
1693	0	2050	2041	2055	2043	
1694	0	2052	2038	2050	2051	
1695	0	2052	2051	2051	2056	
1696	0	2052	2051	2045	2053	
1697	0	2054	2048	2054	2048	
1698	0	2050	2055	2046	2041	
1699	0	2053	2051	2051	2050	
1700	0	2046	2051	2035	2056	
1701	0	2046	2055	2048	2053	
1702	0	2046	2052	2043	2046	
1703	0	2042	2046	2047	2039	
1704	0	2042	2051	2034	2055	
1705	0	2041	2043	2044	2051	
1706	0	2046	2040	2047	2037	
1707	0	2044	2053	2050	2039	
1708	0	2046	2041	2047	2051	
1709	0	2046	2042	2051	2050	
1710	0	2047	2051	2051	2051	
1711	0	2048	2046	2054	2045	
1712	0	2049	2044	2042	2042	
1713	0	2055	2057	2050	2051	
1714	0	2060	2057	2064	2051	
1715	0	2060	2052	2061	2053	
1716	0	2056	2051	2054	2047	
1717	0	2051	2054	2057	2042	
1718	0	2049	2052	2053	2044	
1719	0	2048	2048	2032	2053	
1720	0	2049	2049	2034	2057	
1721	0	2046	2049	2036	2052	
1722	0	2042	2043	2032	2040	
1723	0	2044	2045	2045	2040	
1724	0	2045	2047	2037	2055	
1725	0	2041	2045	2042	2055	
1726	0	2041	2040	2045	2045	
1727	0	2044	2048	2040	2038	
1728	0	2049	2049	2057	2037	
1729	0	2050	2044	2055	2039	
1730	0	2051	2050	2054	2053	
1731	0	2049	2050	2041	2050	
1732	0	2053	2048	2049	2046	
1733	0	2056	2055	2054	2046	
1734	0	2060	2052	2055	2059	
1735	0	2059	2050	2044	2061	
1736	0	2062	2048	2055	2063	
1737	0	2058	2055	2055	2054	
1738	0	2062	2051	2053	2047	
1739	0	2068	2050	2066	2042	
1740	0	2059	2051	2061	2040	
1741	0	2051	2050	2052	2054	
1742	0	2041	2043	2050	2046	
1743	0	2034	2042	2037	2042	
1744	0	2026	2051	2038	2037	
1745	0	2029	2046	2029	2039	
1746	0	2028	2042	2024	2048	
1747	0	2033	2046	2025	2052	
1748	0	2037	2045	2026	2047	
1749	0	2043	2045	2032	2041	
1750	0	2050	2045	2052	2040	
1751	0	2054	2049	2051	2055	
1752	0	2064	2054	2068	2049	
1753	0	2059	2046	2065	2053	
1754	0	2061	2053	2056	2044	
1755	0	2061	2063	2064	2050	
1756	0	2053	2057	2053	2055	
1757	0	2051	2053	2054	2046	
1758	0	2046	2051	2039	2044	
1759	0	2033	2042	2043	2066	
1760	0	2043	2043	2049	2051	
1761	0	2056	2050	2045	2042	
1762	0	2058	2040	2061	2053	
1763	0	2048	2028	2055	2055	
1764	0	2042	2042	2036	2064	
1765	0	2045	2046	2051	2046	
1766	0	2041	2050	2048	2021	
1767	0	2052	2066	2046	2025	
1768	0	2061	2056	2040	2030	
1769	0	2056	2054	2060	2027	
1770	0	2069	2062	2062	2038	
1771	0	2069	2058	2052	2051	
1772	0	2066	2052	2041	2066	
1773	0	2057	2051	2043	2058	
1774	0	2056	2050	2038	2056	
1775	0	2053	2051	2042	2056	
1776	0	2052	2044	2046	2062	
1777	0	2047	2045	2043	2052	
1778	0	2050	2054	2039	2042	
1779	0	2044	2055	2028	2048	
1780	0	2039	2040	2044	2051	
1781	0	2042	2040	2053	2050	
1782	0	2042	2048	2050	2062	
1783	0	2041	2045	2057	2059	
1784	0	2041	2036	2056	2050	
1785	0	2033	2042	2043	2030	
1786	0	2037	2046	2052	2027	
1787	0	2023	2040	2052	2038	
1788	0	2028	2044	2051	2054	
1789	0	2054	2053	2039	2049	
1790	0	2066	2058	2055	2056	
1791	0	2072	2062	2048	2041	
1792	0	2065	2071	2046	2027	
1793	0	2069	2061	2052	2036	
1794	0	2067	2050	2072	2048	
1795	0	2062	2056	2068	2060	
1796	0	2054	2052	2073	2074	
1797	0	2038	2040	2055	2072	
1798	0	2024	2038	2049	2067	
1799	0	2036	2038	2040	2058	
1800	0	2053	2045	2047	2050	
1801	0	2072	2057	2050	2039	
1802	0	2063	2062	2058	2030	
1803	0	2048	2046	2046	2036	
1804	0	2033	2038	2047	2064	
1805	0	2028	2045	2040	2059	
1806	0	2036	2035	2048	2055	
1807	0	2045	2046	2044	2026	
1808	0	2055	2060	2041	2026	
1809	0	2059	2058	2039	2040	
1810	0	2058	2057	2036	2030	
1811	0	2052	2057	2031	2027	
1812	0	2038	2059	2025	2025	
1813	0	2030	2051	2018	2026	
1814	0	2040	2047	2048	2030	
1815	0	2040	2042	2038	2052	
1816	0	2048	2050	2060	2059	
1817	0	2049	2042	2052	2055	
1818	0	2053	2037	2060	2053	
1819	0	2063	2046	2059	2054	
1820	0	2041	2041	2018	2047	
1821	0	2026	2040	2018	2044	
1822	0	2045	2053	2032	2045	
1823	0	2059	2058	2033	2053	
1824	0	2058	2051	2029	2051	
1825	0	2052	2042	2030	2047	
1826	0	2055	2051	2043	2062	
1827	0	2070	2048	2054	2061	
1828	0	2063	2042	2068	2055	
1829	0	2052	2056	2063	2036	
1830	0	2051	2056	2049	2033	
1831	0	2050	2059	2055	2040	
1832	0	2049	2066	2058	2043	
1833	0	2053	2058	2066	2056	
1834	0	2049	2048	2055	2063	
1835	0	2042	2050	2056	2070	
1836	0	2041	2056	2052	2052	
1837	0	2039	2049	2055	2038	
1838	0	2035	2034	2049	2052	
1839	0	2045	2040	2050	2063	
1840	0	2062	2053	2049	2075	
1841	0	2078	2057	2063	2068	
1842	0	2062	2056	2040	2054	
1843	0	2047	2049	2047	2055	
1844	0	2050	2052	2076	2046	
1845	0	2024	2040	2045	2030	
1846	0	2011	2021	2024	2018	
1847	0	2013	2030	2034	2012	
1848	0	2021	2038	2063	2027	
1849	0	2062	2052	2066	2018	
1850	0	2089	2070	2074	2020	
1851	0	2074	2063	2067	2036	
1852	0	2070	2058	2041	2057	
1853	0	2077	2056	2044	2060	
1854	0	2063	2056	2038	2059	
1855	0	2056	2053	2044	2049	
1856	0	2045	2050	2018	2048	
1857	0	2034	2052	2010	2055	
1858	0	2035	2047	2009	2061	
1859	0	2033	2048	2017	2054	
1860	0	2045	2053	2026	2063	
1861	0	2064	2057	2050	2051	
1862	0	2076	2054	2067	2034	
1863	0	2071	2053	2078	2043	
1864	0	2051	2040	2062	2057	
1865	0	2037	2032	2057	2063	
1866	0	2031	2035	2053	2051	
1867	0	2037	2037	2064	2057	
1868	0	2040	2037	2039	2072	
1869	0	2035	2035	2045	2070	
1870	0	2046	2036	2060	2044	
1871	0	2037	2037	2061	2066	
1872	0	2052	2056	2043	2047	
1873	0	2045	2067	2054	2015	
1874	0	2046	2070	2043	2029	
1875	0	2056	2071	2044	2022	
1876	0	2057	2064	2059	2021	
1877	0	2070	2069	2063	2018	
1878	0	2061	2070	2057	2017	
1879	0	2054	2053	2038	2040	
1880	0	2049	2045	2052	2055	
1881	0	2054	2051	2062	2057	
1882	0	2044	2047	2056	2057	
1883	0	2041	2042	2031	2054	
1884	0	2039	2044	2044	2047	
1885	0	2038	2043	2039	2059	
1886	0	2037	2035	2044	2060	
1887	0	2040	2036	2035	2060	
1888	0	2043	2044	2049	2054	
1889	0	2038	2042	2042	2044	
1890	0	2041	2043	2063	2047	
1891	0	2038	2046	2052	2054	
1892	0	2041	2042	2065	2054	
1893	0	2034	2038	2052	2046	
1894	0	2031	2040	2051	2052	
1895	0	2039	2042	2045	2058	
1896	0	2040	2044	2045	2063	
1897	0	2046	2047	2045	2057	
1898	0	2073	2056	2050	2040	
1899	0	2095	2062	2039	2040	
1900	0	2086	2061	2054	2046	
1901	0	2069	2054	2045	2056	
1902	0	2066	2052	2035	2049	
1903	0	2053	2052	2007	2045	
1904	0	2050	2050	2008	2038	
1905	0	2044	2044	2016	2024	
1906	0	2046	2048	2035	2039	
1907	0	2044	2052	2053	2047	
1908	0	2045	2042	2055	2047	
1909	0	2048	2040	2063	2045	
1910	0	2054	2052	2060	2041	
1911	0	2053	2048	2058	2055	
1912	0	2050	2043	2066	2054	
1913	0	2047	2051	2052	2057	
1914	0	2046	2044	2062	2047	
1915	0	2054	2046	2049	2043	
1916	0	2053	2052	2055	2051	
1917	0	2046	2049	2056	2054	
1918	0	2049	2050	2055	2055	
1919	0	2052	2048	2057	2050	
1920	0	2058	2047	2069	2051	
1921	0	2047	2042	2056	2056	
1922	0	2041	2044	2053	2050	
1923	0	2038	2041	2047	2037	
1924	0	2040	2039	2037	2040	
1925	0	2042	2051	2055	2051	
1926	0	2042	2043	2058	2047	
1927	0	2043	2041	2048	2041	
1928	0	2045	2044	2014	2058	
1929	0	2042	2046	1998	2041	
1930	0	2040	2050	2024	2036	
1931	0	2043	2044	2031	2048	
1932	0	2048	2049	2037	2043	
1933	0	2053	2043	2053	2051	
1934	0	2057	2049	2047	2061	
1935	0	2062	2047	2062	2052	
1936	0	2059	2051	2058	2047	
1937	0	2056	2054	2060	2052	
1938	0	2052	2050	2051	2056	
1939	0	2057	2055	2057	2045	
1940	0	2056	2054	2062	2045	
1941	0	2054	2051	2041	2050	
1942	0	2057	2056	2065	2047	
1943	0	2056	2049	2065	2036	
1944	0	2044	2038	2058	2034	
1945	0	2048	2039	2051	2045	
1946	0	2051	2041	2041	2038	
1947	0	2041	2042	2044	2041	
1948	0	2035	2040	2050	2032	
1949	0	2038	2040	2051	2044	
1950	0	2044	2048	2050	2059	
1951	0	2046	2050	2040	2055	
1952	0	2043	2049	2039	2048	
1953	0	2047	2045	2031	2053	
1954	0	2050	2041	2017	2056	
1955	0	2046	2037	2019	2056	
1956	0	2046	2044	2040	2044	
1957	0	2051	2045	2053	2050	
1958	0	2022	2034	2052	2060	
1959	0	2029	2032	2059	2056	
1960	0	2058	2051	2065	2042	
1961	0	2060	2052	2072	2032	
1962	0	2052	2046	2069	2042	
1963	0	2060	2046	2049	2045	
1964	0	2061	2048	2061	2042	
1965	0	2054	2051	2054	2043	
1966	0	2054	2050	2041	2039	
1967	0	2055	2058	2060	2047	
1968	0	2059	2058	2063	2049	
1969	0	2058	2060	2053	2047	
1970	0	2062	2060	2030	2036	
1971	0	2048	2055	2006	2048	
1972	0	2044	2050	2014	2055	
1973	0	2045	2050	2012	2054	
1974	0	2049	2056	2037	2047	
1975	0	2060	2058	2050	2034	
1976	0	2066	2056	2052	2045	
1977	0	2064	2062	2057	2055	
1978	0	2057	2064	2054	2052	
1979	0	2060	2059	2064	2051	
1980	0	2046	2043	2058	2053	
1981	0	2039	2041	2046	2061	
1982	0	2042	2043	2057	2061	
1983	0	2047	2046	2048	2064	
1984	0	2045	2042	2045	2062	
1985	0	2027	2037	2040	2046	
1986	0	2027	2043	2042	2038	
1987	0	2028	2047	2050	2037	
1988	0	2033	2050	2044	2035	
1989	0	2033	2052	2058	2043	
1990	0	2047	2054	2057	2051	
1991	0	2062	2059	2057	2050	
1992	0	2068	2056	2061	2036	
1993	0	2067	2055	2067	2040	
1994	0	2060	2056	2082	2042	
1995	0	2036	2047	2029	2055	
1996	0	2014	2044	2031	2055	
1997	0	2017	2043	2053	2043	
1998	0	2052	2050	2044	2038	
1999	0	2081	2064	2035	2040	
2000	0	2074	2061	2011	2050	
2001	0	2080	2071	2039	2046	
2002	0	2068	2055	2044	2037	
2003	0	2051	2046	2018	2040	
2004	0	2036	2042	2020	2052	
2005	0	2039	2044	2027	2054	
2006	0	2046	2043	2039	2045	
2007	0	2058	2045	2062	2047	
2008	0	2066	2056	2061	2038	
2009	0	2062	2062	2066	2046	
2010	0	2060	2057	2073	2052	
2011	0	2052	2053	2076	2057	
2012	0	2043	2044	2067	2049	
2013	0	2049	2048	2053	2042	
2014	0	2054	2049	2070	2061	
2015	0	2051	2048	2057	2071	
2016	0	2047	2046	2046	2074	
2017	0	2049	2052	2042	2074	
2018	0	2032	2053	2017	2068	
2019	0	2020	2042	2016	2058	
2020	0	2032	2050	2036	2050	
2021	0	2048	2056	2053	2029	
2022	0	2054	2065	2060	2005	
2023	0	2048	2058	2056	1998	
2024	0	2040	2048	2060	1999	
2025	0	2025	2044	2049	2025	
2026	0	2015	2047	2026	2052	
2027	0	2009	2036	2018	2060	
2028	0	2058	2052	2042	2047	
2029	0	2073	2056	2061	2053	
2030	0	2065	2051	2059	2058	
2031	0	2069	2055	2065	2044	
2032	0	2066	2060	2084	2041	
2033	0	2060	2053	2071	2059	
2034	0	2059	2067	2046	2050	
2035	0	2051	2046	2042	2053	
2036	0	2080	2047	2052	2056	
2037	0	2104	2072	2046	2056	
2038	0	2085	2065	2039	2049	
2039	0	2044	2052	2030	2036	
2040	0	2027	2054	2033	2043	
2041	0	2038	2047	2036	2053	
2042	0	2052	2050	2041	2045	
2043	0	2056	2047	2050	2043	
2044	0	2048	2045	2049	2051	
2045	0	2042	2048	2040	2043	
2046	0	2032	2041	2054	2040	
2047	0	2035	2042	2044	2056	
2048	0	2035	2044	2051	2062	
2049	0	2039	2037	2042	2062	
2050	0	2044	2045	2052	2057	
2051	0	2044	2044	2041	2070	
2052	0	2044	2037	2050	2057	
2053	0	2047	2048	2054	2048	
2054	0	2052	2047	2049	2046	
2055	0	2051	2044	2051	2054	
2056	0	2051	2051	2043	2051	
2057	0	2055	2048	2062	2033	
2058	0	2062	2055	2060	2019	
2059	0	2060	2057	2059	2035	
2060	0	2059	2048	2066	2043	
2061	0	2051	2048	2070	2046	
2062	0	2050	2045	2066	2052	
2063	0	2044	2045	2062	2049	
2064	0	2047	2050	2047	2040	
2065	0	2053	2050	2055	2033	
2066	0	2040	2052	2024	2041	
2067	0	2035	2052	2007	2040	
2068	0	2026	2045	1988	2038	
2069	0	2024	2044	2002	2055	
2070	0	2029	2039	1994	2057	
2071	0	2035	2036	2006	2050	
2072	0	2044	2050	2035	2052	
2073	0	2053	2054	2062	2062	
2074	0	2065	2050	2070	2056	
2075	0	2072	2062	2082	2047	
2076	0	2071	2057	2068	2058	
2077	0	2064	2063	2071	2056	
2078	0	2052	2052	2050	2061	
2079	0	2055	2051	2046	2045	
2080	0	2053	2050	2052	2055	
2081	0	2053	2047	2050	2048	
2082	0	2052	2040	2043	2048	
2083	0	2043	2042	2052	2046	
2084	0	2044	2041	2058	2035	
2085	0	2047	2046	2052	2028	
2086	0	2046	2050	2055	2029	
2087	0	2045	2048	2038	2037	
2088	0	2049	2045	2049	2044	
2089	0	2045	2042	2051	2048	
2090	0	2045	2045	2048	2050	
2091	0	2047	2042	2048	2054	
2092	0	2041	2044	2043	2054	
2093	0	2051	2049	2053	2054	
2094	0	2045	2052	2063	2056	
2095	0	2062	2062	2070	2053	
2096	0	2073	2061	2054	2056	
2097	0	2064	2056	2051	2052	
2098	0	2051	2047	2043	2055	
2099	0	2042	2038	2061	2060	
2100	0	2045	2041	2056	2058	
2101	0	2038	2045	2049	2048	
2102	0	2047	2056	2057	2041	
2103	0	2052	2062	2038	2031	
2104	0	2044	2049	2022	2032	
2105	0	2029	2037	2027	2036	
2106	0	2033	2037	2049	2046	
2107	0	2035	2042	2044	2058	
2108	0	2045	2048	2030	2053	
2109	0	2060	2052	2042	2043	
2110	0	2059	2056	2040	2037	
2111	0	2046	2049	2053	2036	
2112	0	2045	2051	2073	2041	
2113	0	2042	2049	2060	2054	
2114	0	2057	2054	2060	2048	
2115	0	2063	2054	2050	2053	
2116	0	2050	2052	2037	2051	
2117	0	2035	2036	2029	2061	
2118	0	2046	2046	2039	2064	
2119	0	2069	2059	2038	2058	
2120	0	2064	2062	2025	2054	
2121	0	2048	2052	2020	2050	
2122	0	2039	2049	2022	2043	
2123	0	2041	2042	2043	2042	
2124	0	2055	2044	2056	2039	
2125	0	2063	2054	2068	2036	
2126	0	2066	2060	2069	2038	
2127	0	2064	2056	2063	2037	
2128	0	2062	2048	2072	2044	
2129	0	2051	2043	2053	2047	
2130	0	2034	2034	2057	2055	
2131	0	2040	2046	2068	2048	
2132	0	2065	2058	2079	2051	
2133	0	2060	2053	2051	2048	
2134	0	2043	2040	2041	2045	
2135	0	2049	2042	2043	2048	
2136	0	2052	2046	2069	2048	
2137	0	2049	2050	2070	2063	
2138	0	2058	2056	2042	2057	
2139	0	2059	2049	2038	2054	
2140	0	2051	2045	2039	2065	
2141	0	2049	2050	2034	2054	
2142	0	2045	2053	2043	2035	
2143	0	2034	2045	2046	2043	
2144	0	2008	2036	2019	2057	
2145	0	2017	2042	2022	2051	
2146	0	2046	2059	2054	2029	
2147	0	2057	2059	2043	2042	
2148	0	2049	2056	2040	2048	
2149	0	2050	2050	2010	2029	
2150	0	2046	2047	1999	2033	
2151	0	2044	2044	2038	2052	
2152	0	2047	2043	2063	2059	
2153	0	2042	2042	2064	2048	
2154	0	2050	2040	2073	2053	
2155	0	2075	2046	2063	2060	
2156	0	2076	2052	2052	2060	
2157	0	2057	2049	2060	2045	
2158	0	2054	2047	2061	2048	
2159	0	2050	2044	2052	2048	
2160	0	2045	2044	2037	2062	
2161	0	2048	2059	2047	2053	
2162	0	2046	2054	2052	2027	
2163	0	2050	2055	2058	2025	
2164	0	2054	2055	2048	2046	
2165	0	2046	2046	2045	2047	
2166	0	2044	2041	2043	2046	
2167	0	2045	2045	2036	2044	
2168	0	2040	2044	2049	2056	
2169	0	2045	2039	2046	2058	
2170	0	2055	2044	2052	2050	
2171	0	2059	2053	2060	2040	
2172	0	2059	2054	2077	2043	
2173	0	2057	2053	2073	2052	
2174	0	2050	2056	2068	2044	
2175	0	2047	2052	2070	2044	
2176	0	2045	2041	2063	2045	
2177	0	2043	2052	2044	2066	
2178	0	2030	2040	2049	2061	
2179	0	2028	2025	2036	2052	
2180	0	2040	2048	2039	2043	
2181	0	2033	2047	2016	2047	
2182	0	2056	2046	2035	2029	
2183	0	2067	2055	2008	2022	
2184	0	2066	2058	2008	2026	
2185	0	2052	2048	2037	2046	
2186	0	2041	2042	2031	2053	
2187	0	2038	2040	2035	2056	
2188	0	2036	2043	2035	2055	
2189	0	2045	2046	2039	2057	
2190	0	2043	2059	2054	2071	
2191	0	2050	2058	2050	2068	
2192	0	2059	2056	2043	2047	
2193	0	2070	2061	2036	2047	
2194	0	2080	2059	2054	2041	
2195	0	2062	2056	2056	2050	
2196	0	2051	2058	2056	2058	
2197	0	2040	2058	2068	2042	
2198	0	2056	2054	2057	2039	
2199	0	2062	2055	2070	2046	
2200	0	2053	2050	2070	2041	
2201	0	2040	2041	2052	2040	
2202	0	2047	2038	2058	2048	
2203	0	2058	2051	2072	2045	
2204	0	2042	2042	2054	2044	
2205	0	2030	2034	2046	2038	
2206	0	2028	2037	2038	2032	
2207	0	2028	2041	2041	2048	
2208	0	2035	2034	2035	2051	
2209	0	2044	2039	2044	2049	
2210	0	2053	2042	2040	2052	
2211	0	2066	2057	2057	2046	
2212	0	2060	2058	2048	2053	
2213	0	2052	2050	2032	2062	
2214	0	2070	2068	2068	2050	
2215	0	2067	2062	2051	2047	
2216	0	2050	2052	2048	2047	
2217	0	2044	2050	2013	2057	
2218	0	2024	2050	2023	2053	
2219	0	2032	2052	2047	2045	
2220	0	2047	2053	2056	2032	
2221	0	2072	2066	2054	2039	
2222	0	2066	2057	2049	2044	
2223	0	2049	2048	2038	2033	
2224	0	2043	2053	2054	2031	
2225	0	2046	2049	2045	2050	
2226	0	2046	2041	2051	2052	
2227	0	2046	2044	2046	2042	
2228	0	2039	2048	2050	2030	
2229	0	2050	2046	2040	2050	
2230	0	2055	2049	2054	2053	
2231	0	2047	2044	2043	2048	
2232	0	2028	2025	2037	2059	
2233	0	2006	2024	2030	2075	
2234	0	2011	2033	2031	2069	
2235	0	2023	2032	2046	2060	
2236	0	2050	2048	2051	2049	
2237	0	2057	2057	2047	2045	
2238	0	2079	2061	2058	2048	
2239	0	2093	2055	2060	2049	
2240	0	2079	2060	2041	2036	
2241	0	2076	2056	2055	2030	
2242	0	2056	2047	2057	2040	
2243	0	2064	2056	2050	2044	
2244	0	2055	2048	2031	2045	
2245	0	2009	2026	2027	2044	
2246	0	2004	2033	2050	2047	
2247	0	2004	2028	2077	2066	
2248	0	2020	2041	2082	2054	
2249	0	2052	2063	2066	2046	
2250	0	2063	2052	2078	2047	
2251	0	2092	2053	2040	2052	
2252	0	2113	2074	2036	2056	
2253	0	2098	2069	2025	2047	
2254	0	2071	2064	2005	2039	
2255	0	2044	2067	2014	2039	
2256	0	2032	2042	2039	2054	
2257	0	2048	2045	2056	2054	
2258	0	2064	2059	2060	2051	
2259	0	2062	2052	2039	2038	
2260	0	2050	2040	2024	2033	
2261	0	2047	2045	2060	2043	
2262	0	2056	2048	2071	2038	
2263	0	2061	2056	2069	2021	
2264	0	2061	2070	2054	2000	
2265	0	2054	2067	2060	2001	
2266	0	2042	2051	2055	2025	
2267	0	2036	2045	2040	2040	
2268	0	2030	2034	2044	2042	
2269	0	2027	2026	2043	2052	
2270	0	2031	2028	2042	2075	
2271	0	2029	2026	2032	2097	
2272	0	2033	2026	2034	2090	
2273	0	2035	2038	2047	2075	
2274	0	2037	2042	2054	2062	
2275	0	2041	2042	2048	2061	
2276	0	2045	2058	2063	2067	
2277	0	2047	2059	2052	2058	
2278	0	2046	2050	2040	2044	
2279	0	2062	2049	2053	2044	
2280	0	2064	2054	2039	2053	
2281	0	2058	2050	2043	2066	
2282	0	2056	2051	2070	2056	
2283	0	2048	2050	2073	2046	
2284	0	2075	2067	2074	2024	
2285	0	2080	2062	2050	2018	
2286	0	2062	2050	1997	2029	
2287	0	2021	2048	1992	2050	
2288	0	2021	2045	2019	2049	
2289	0	2032	2040	2040	2048	
2290	0	2036	2041	2045	2043	
2291	0	2036	2047	2051	2041	
2292	0	2063	2058	2060	2039	
2293	0	2067	2068	2061	2035	
2294	0	2063	2061	2049	2039	
2295	0	2059	2044	2050	2036	
2296	0	2049	2049	2058	2051	
2297	0	2032	2040	2057	2060	
2298	0	2040	2038	2040	2061	
2299	0	2058	2045	2059	2052	
2300	0	2049	2034	2047	2061	
2301	0	2045	2037	2034	2068	
2302	0	2032	2036	2031	2064	
2303	0	2022	2037	2021	2052	
2304	0	2035	2040	2053	2045	
2305	0	2038	2042	2047	2061	
2306	0	2046	2052	2037	2060	
2307	0	2050	2047	2058	2048	
2308	0	2069	2053	2095	2026	
2309	0	2073	2064	2068	2029	
2310	0	2069	2060	2045	2034	
2311	0	2069	2065	2053	2031	
2312	0	2055	2062	2063	2030	
2313	0	2051	2052	2050	2025	
2314	0	2056	2064	2034	2033	
2315	0	2060	2063	2039	2036	
2316	0	2074	2063	2051	2031	
2317	0	2071	2068	2056	2034	
2318	0	2050	2052	2038	2054	
2319	0	2047	2046	2038	2063	
2320	0	2044	2038	2050	2059	
2321	0	2043	2036	2047	2060	
2322	0	2040	2043	2046	2063	
2323	0	2041	2041	2048	2062	
2324	0	2031	2031	2042	2061	
2325	0	2033	2029	2046	2057	
2326	0	2037	2044	2028	2046	
2327	0	2040	2040	2046	2042	
2328	0	2036	2032	2047	2056	
2329	0	2048	2044	2052	2057	
2330	0	2049	2044	2044	2062	
2331	0	2050	2044	2066	2043	
2332	0	2061	2054	2065	2035	
2333	0	2057	2059	2072	2042	
2334	0	2057	2052	2061	2047	
2335	0	2053	2051	2059	2042	
2336	0	2051	2053	2044	2039	
2337	0	2048	2045	2043	2042	
2338	0	2042	2043	2006	2054	
2339	0	2042	2052	2010	2061	
2340	0	2040	2045	2018	2054	
2341	0	2045	2043	2035	2043	
2342	0	2054	2054	2041	2051	
2343	0	2061	2054	2049	2047	
2344	0	2051	2053	2061	2040	
2345	0	2048	2053	2041	2029	
2346	0	2045	2051	2045	2039	
2347	0	2048	2058	2048	2032	
2348	0	2046	2053	2056	2020	
2349	0	2052	2047	2057	2029	
2350	0	2054	2050	2062	2049	
2351	0	2053	2041	2050	2055	
2352	0	2047	2034	2040	2056	
2353	0	2046	2039	2049	2057	
2354	0	2051	2045	2052	2072	
2355	0	2053	2051	2062	2071	
2356	0	2046	2045	2048	2059	
2357	0	2053	2050	2056	2051	
2358	0	2058	2058	2045	2050	
2359	0	2051	2057	2051	2058	
2360	0	2056	2054	2049	2047	
2361	0	2051	2054	2055	2044	
2362	0	2055	2052	2054	2043	
2363	0	2028	2035	2054	2058	
2364	0	2036	2040	2060	2056	
2365	0	2047	2046	2045	2043	
2366	0	2064	2055	2055	2034	
2367	0	2059	2056	2054	2042	
2368	0	2052	2047	2054	2035	
2369	0	2044	2047	2040	2029	
2370	0	2039	2045	2028	2037	
2371	0	2037	2037	2034	2049	
2372	0	2032	2033	2030	2059	
2373	0	2042	2039	2037	2053	
2374	0	2049	2042	2038	2050	
2375	0	2072	2059	2069	2059	
2376	0	2068	2062	2073	2051	
2377	0	2057	2056	2069	2049	
2378	0	2051	2067	2055	2039	
2379	0	2064	2070	2079	2040	
2380	0	2068	2064	2085	2043	
2381	0	2057	2060	2068	2034	
2382	0	2049	2044	2052	2036	
2383	0	2028	2039	2027	2057	
2384	0	2015	2026	2024	2075	
2385	0	2007	2024	2014	2066	
2386	0	2021	2035	2020	2055	
2387	0	2044	2040	1982	2053	
2388	0	2071	2051	2008	2052	
2389	0	2073	2063	2044	2042	
2390	0	2064	2055	2056	2030	
2391	0	2058	2057	2075	2035	
2392	0	2054	2054	2076	2041	
2393	0	2055	2052	2071	2030	
2394	0	2058	2056	2058	2031	
2395	0	2064	2050	2044	2052	
2396	0	2062	2058	2044	2062	
2397	0	2051	2053	2040	2059	
2398	0	2048	2043	2051	2063	
2399	0	2050	2051	2053	2067	
2400	0	2050	2048	2054	2050	
2401	0	2047	2048	2050	2042	
2402	0	2047	2052	2055	2040	
2403	0	2048	2051	2046	2051	
2404	0	2039	2041	2043	2061	
2405	0	2032	2034	2028	2051	
2406	0	2031	2034	2032	2044	
2407	0	2036	2041	2042	2049	
2408	0	2042	2052	2049	2048	
2409	0	2060	2049	2066	2035	
2410	0	2059	2050	2067	2031	
2411	0	2058	2046	2078	2051	
2412	0	2042	2037	2066	2052	
2413	0	2037	2047	2072	2044	
2414	0	2066	2057	2084	2030	
2415	0	2059	2060	2045	2028	
2416	0	2038	2062	2017	2034	
2417	0	2049	2055	2004	2036	
2418	0	2063	2050	2018	2033	
2419	0	2067	2056	2004	2040	
2420	0	2032	2035	2000	2065	
2421	0	2019	2024	2015	2078	
2422	0	2053	2050	2044	2067	
2423	0	2079	2066	2062	2044	
2424	0	2070	2062	2078	2042	
2425	0	2061	2070	2083	2045	
2426	0	2062	2063	2070	2044	
2427	0	2055	2053	2068	2045	
2428	0	2045	2049	2055	2045	
2429	0	2040	2034	2052	2060	
2430	0	2045	2032	2058	2080	
2431	0	2039	2042	2053	2083	
2432	0	2042	2044	2051	2066	
2433	0	2043	2035	2025	2055	
2434	0	2042	2044	2046	2047	
2435	0	2052	2046	2040	2057	
2436	0	2048	2041	2034	2055	
2437	0	2045	2059	2047	2036	
2438	0	2050	2060	2056	2025	
2439	0	2063	2062	2069	2030	
2440	0	2055	2067	2050	2032	
2441	0	2037	2045	2024	2036	
2442	0	2041	2033	2037	2036	
2443	0	2046	2046	2036	2049	
2444	0	2054	2050	2055	2053	
2445	0	2046	2038	2055	2049	
2446	0	2049	2044	2068	2053	
2447	0	2056	2044	2063	2044	
2448	0	2050	2046	2076	2028	
2449	0	2038	2050	2054	2029	
2450	0	2021	2038	2027	2038	
2451	0	2021	2041	2024	2020	
2452	0	2045	2064	2024	2000	
2453	0	2071	2074	2025	1998	
2454	0	2071	2067	2046	2033	
2455	0	2063	2063	2058	2043	
2456	0	2066	2063	2051	2048	
2457	0	2061	2056	2042	2073	
2458	0	2042	2047	2013	2097	
2459	0	2051	2048	2032	2096	
2460	0	2054	2046	2034	2089	
2461	0	2058	2056	2041	2065	
2462	0	2058	2061	2060	2071	
2463	0	2041	2043	2034	2085	
2464	0	2039	2028	2045	2080	
2465	0	2039	2025	2050	2055	
2466	0	2034	2036	2044	2048	
2467	0	2037	2031	2047	2047	
2468	0	2043	2042	2060	2029	
2469	0	2038	2046	2052	2022	
2470	0	2040	2044	2061	2019	
2471	0	2060	2048	2056	2026	
2472	0	2049	2048	2030	2043	
2473	0	2041	2040	2053	2042	
2474	0	2047	2045	2049	2044	
2475	0	2044	2056	2031	2046	
2476	0	2045	2055	2049	2053	
2477	0	2058	2058	2070	2059	
2478	0	2080	2061	2079	2040	
2479	0	2074	2065	2082	2033	
2480	0	2063	2050	2055	2044	
2481	0	2059	2048	2034	2046	
2482	0	2058	2052	2037	2045	
2483	0	2055	2055	2060	2050	
2484	0	2052	2050	2062	2050	
2485	0	2044	2046	2054	2042	
2486	0	2038	2048	2044	2034	
2487	0	2048	2059	2047	2018	
2488	0	2058	2059	2035	2024	
2489	0	2054	2054	2030	2036	
2490	0	2015	2040	2007	2044	
2491	0	2002	2037	2002	2056	
2492	0	2021	2038	2009	2057	
2493	0	2030	2045	2013	2080	
2494	0	2036	2037	2026	2080	
2495	0	2064	2040	2060	2063	
2496	0	2074	2059	2074	2044	
2497	0	2080	2064	2065	2040	
2498	0	2088	2066	2075	2049	
2499	0	2070	2058	2065	2049	
2500	0	2051	2059	2063	2057	
2501	0	2045	2051	2066	2039	
2502	0	2051	2041	2054	2038	
2503	0	2058	2045	2046	2039	
2504	0	2049	2040	2054	2055	
2505	0	2040	2030	2027	2070	
2506	0	2031	2028	2020	2062	
2507	0	2028	2040	2025	2048	
2508	0	2034	2040	2042	2042	
2509	0	2039	2046	2066	2043	
2510	0	2039	2053	2056	2042	
2511	0	2053	2056	2067	2028	
2512	0	2069	2056	2067	2030	
2513	0	2066	2052	2052	2048	
2514	0	2064	2054	2069	2060	
2515	0	2069	2059	2070	2052	
2516	0	2061	2053	2050	2045	
2517	0	2061	2059	2052	2041	
2518	0	2061	2064	2052	2042	
2519	0	2046	2051	2032	2042	
2520	0	2037	2046	2024	2042	
2521	0	2041	2050	2037	2034	
2522	0	2043	2039	2046	2051	
2523	0	2044	2038	2041	2062	
2524	0	2040	2040	2051	2065	
2525	0	2037	2036	2033	2058	
2526	0	2035	2031	2024	2052	
2527	0	2034	2034	2033	2047	
2528	0	2038	2045	2044	2047	
2529	0	2046	2046	2032	2038	
2530	0	2051	2045	2054	2031	
2531	0	2054	2057	2054	2030	
2532	0	2048	2052	2047	2044	
2533	0	2056	2052	2041	2049	
2534	0	2044	2058	2050	2045	
2535	0	2055	2063	2063	2045	
2536	0	2066	2061	2047	2076	
2537	0	2061	2056	2061	2070	
2538	0	2035	2050	2059	2045	
2539	0	2017	2043	2031	2034	
2540	0	2013	2044	2044	2046	
2541	0	2034	2046	2045	2057	
2542	0	2061	2040	2062	2056	
2543	0	2073	2040	2064	2045	
2544	0	2064	2045	2078	2056	
2545	0	2070	2045	2074	2050	
2546	0	2067	2051	2061	2030	
2547	0	2067	2058	2049	2012	
2548	0	2060	2048	2032	2020	
2549	0	2047	2039	2003	2015	
2550	0	2040	2050	2015	2016	
2551	0	2039	2046	2017	2034	
2552	0	2042	2051	2028	2049	
2553	0	2060	2067	2049	2038	
2554	0	2064	2069	2060	2050	
2555	0	2052	2058	2049	2077	
2556	0	2047	2044	2062	2096	
2557	0	2048	2050	2065	2095	
2558	0	2047	2044	2052	2081	
2559	0	2051	2037	2029	2077	
2560	0	2049	2040	2040	2094	
2561	0	2053	2044	2048	2068	
2562	0	2052	2046	2058	2042	
2563	0	2048	2060	2050	2039	
2564	0	2046	2049	2062	2035	
2565	0	2046	2048	2057	2029	
2566	0	2044	2053	2065	2015	
2567	0	2045	2051	2053	2018	
2568	0	2050	2054	2061	2031	
2569	0	2048	2053	2049	2042	
2570	0	2031	2038	2022	2041	
2571	0	2034	2034	2027	2048	
2572	0	2039	2042	2032	2061	
2573	0	2044	2037	2049	2056	
2574	0	2056	2047	2057	2045	
2575	0	2066	2057	2078	2048	
2576	0	2064	2055	2073	2039	
2577	0	2061	2062	2077	2026	
2578	0	2060	2069	2046	2025	
2579	0	2057	2058	2047	2034	
2580	0	2056	2052	2055	2038	
2581	0	2042	2046	2039	2050	
2582	0	2032	2042	2040	2063	
2583	0	2027	2030	2017	2062	
2584	0	2038	2036	2014	2051	
2585	0	2029	2031	2025	2049	
2586	0	2040	2046	2027	2053	
2587	0	2062	2057	2047	2040	
2588	0	2064	2061	2054	2029	
2589	0	2049	2052	2047	2032	
2590	0	2059	2063	2060	2034	
2591	0	2064	2062	2072	2043	
2592	0	2061	2047	2070	2056	
2593	0	2047	2043	2058	2059	
2594	0	2032	2032	2023	2065	
2595	0	2038	2030	2022	2064	
2596	0	2040	2027	2039	2083	
2597	0	2043	2035	2042	2066	
2598	0	2059	2046	2070	2038	
2599	0	2064	2050	2077	2029	
2600	0	2061	2066	2083	2040	
2601	0	2051	2064	2053	2036	
2602	0	2052	2058	2068	2030	
2603	0	2054	2072	2064	2022	
2604	0	2054	2064	2055	2022	
2605	0	2036	2042	2020	2040	
2606	0	2030	2030	2020	2056	
2607	0	2034	2034	2014	2071	
2608	0	2047	2042	2032	2068	
2609	0	2060	2051	2028	2048	
2610	0	2063	2056	2035	2039	
2611	0	2059	2054	2042	2061	
2612	0	2064	2064	2066	2055	
2613	0	2056	2061	2062	2030	
2614	0	2049	2049	2070	2035	
2615	0	2036	2044	2064	2060	
2616	0	2029	2032	2069	2068	
2617	0	2033	2028	2045	2055	
2618	0	2059	2042	2061	2059	
2619	0	2070	2053	2060	2058	
2620	0	2076	2052	2060	2039	
2621	0	2075	2053	2043	2023	
2622	0	2066	2066	2043	2027	
2623	0	2056	2063	2057	2022	
2624	0	2023	2053	2024	2017	
2625	0	2017	2054	2012	2016	
2626	0	2030	2049	2048	2040	
2627	0	2039	2039	2053	2060	
2628	0	2044	2044	2062	2080	
2629	0	2044	2033	2040	2087	
2630	0	2051	2032	2058	2100	
2631	0	2048	2040	2042	2093	
2632	0	2060	2049	2046	2084	
2633	0	2075	2062	2051	2068	
2634	0	2070	2060	2071	2071	
2635	0	2066	2054	2067	2074	
2636	0	2057	2039	2056	2073	
2637	0	2052	2038	2054	2069	
2638	0	2046	2043	2043	2059	
2639	0	2046	2045	2059	2044	
2640	0	2050	2051	2059	2025	
2641	0	2023	2050	2032	2013	
2642	0	2014	2043	2020	2023	
2643	0	2017	2037	2012	2037	
2644	0	2019	2046	2000	2028	
2645	0	2040	2054	2036	2009	
2646	0	2050	2051	2055	2017	
2647	0	2043	2047	2048	2033	
2648	0	2054	2051	2019	2025	
2649	0	2064	2057	2067	2012	
2650	0	2063	2061	2071	2025	
2651	0	2044	2060	2028	2037	
2652	0	2045	2057	2034	2031	
2653	0	2059	2063	2034	2017	
2654	0	2054	2058	2022	2040	
2655	0	2054	2044	2023	2065	
2656	0	2056	2038	2014	2075	
2657	0	2057	2046	2022	2067	
2658	0	2057	2042	2035	2064	
2659	0	2057	2044	2065	2075	
2660	0	2055	2051	2078	2065	
2661	0	2061	2062	2072	2039	
2662	0	2072	2071	2097	2019	
2663	0	2065	2082	2078	2017	
2664	0	2046	2052	2057	2033	
2665	0	2027	2028	2031	2047	
2666	0	2029	2028	2036	2064	
2667	0	2029	2028	2041	2070	
2668	0	2030	2020	2031	2081	
2669	0	2033	2032	2045	2070	
2670	0	2035	2032	2044	2068	
2671	0	2045	2040	2053	2069	
2672	0	2064	2054	2087	2055	
2673	0	2073	2064	2089	2034	
2674	0	2065	2063	2064	2023	
2675	0	2059	2062	2071	2033	
2676	0	2066	2069	2080	2033	
2677	0	2066	2052	2068	2029	
2678	0	2037	2040	2016	2033	
2679	0	2013	2032	2012	2057	
2680	0	2010	2043	2018	2047	
2681	0	2035	2056	2001	2030	
2682	0	2058	2069	1994	2016	
2683	0	2068	2063	2031	2032	
2684	0	2054	2045	2046	2044	
2685	0	2040	2041	2034	2060	
2686	0	2043	2036	2033	2080	
2687	0	2044	2036	2065	2083	
2688	0	2040	2037	2066	2061	
2689	0	2036	2031	2049	2075	
2690	0	2051	2047	2041	2093	
2691	0	2052	2050	2046	2083	
2692	0	2060	2063	2058	2041	
2693	0	2067	2067	2099	2021	
2694	0	2075	2070	2109	2029	
2695	0	2050	2058	2067	2051	
2696	0	2051	2054	2045	2037	
2697	0	2055	2051	2033	2032	
2698	0	2052	2050	2022	2051	
2699	0	2068	2049	2027	2052	
2700	0	2074	2051	2009	2039	
2701	0	2060	2047	2009	2036	
2702	0	2051	2042	2044	2048	
2703	0	2042	2038	2054	2056	
2704	0	2052	2051	2062	2042	
2705	0	2055	2062	2068	2018	
2706	0	2053	2059	2075	2014	
2707	0	2043	2049	2060	2018	
2708	0	2041	2053	2044	2029	
2709	0	2044	2056	2052	2027	
2710	0	2043	2053	2044	2033	
2711	0	2042	2046	2032	2055	
2712	0	2038	2036	2038	2076	
2713	0	2035	2035	2038	2079	
2714	0	2044	2045	2039	2073	
2715	0	2051	2056	2048	2055	
2716	0	2064	2054	2065	2068	
2717	0	2057	2044	2061	2078	
2718	0	2055	2043	2057	2068	
2719	0	2045	2037	2038	2068	
2720	0	2050	2041	2042	2071	
2721	0	2052	2044	2047	2058	
2722	0	2046	2044	2058	2053	
2723	0	2038	2035	2048	2049	
2724	0	2044	2036	2059	2029	
2725	0	2052	2046	2081	2024	
2726	0	2062	2064	2078	2015	
2727	0	2042	2062	2056	2020	
2728	0	2040	2059	2077	2018	
2729	0	2032	2048	2032	2027	
2730	0	2035	2048	1975	2039	
2731	0	2043	2046	1984	2048	
2732	0	2040	2051	2001	2041	
2733	0	2048	2048	2019	2037	
2734	0	2060	2044	2043	2036	
2735	0	2065	2054	2052	2040	
2736	0	2074	2063	2074	2035	
2737	0	2066	2064	2075	2036	
2738	0	2063	2062	2067	2033	
2739	0	2060	2064	2060	2047	
2740	0	2051	2058	2045	2064	
2741	0	2050	2057	2055	2065	
2742	0	2043	2045	2047	2070	
2743	0	2036	2037	2038	2069	
2744	0	2038	2033	2047	2070	
2745	0	2038	2026	2061	2068	
2746	0	2031	2024	2043	2082	
2747	0	2022	2028	2032	2080	
2748	0	2034	2040	2044	2055	
2749	0	2051	2047	2067	2025	
2750	0	2059	2052	2081	2014	
2751	0	2060	2048	2054	2024	
2752	0	2074	2055	2047	2033	
2753	0	2073	2058	2047	2036	
2754	0	2071	2071	2062	2029	
2755	0	2052	2060	2060	2040	
2756	0	2046	2046	2046	2065	
2757	0	2043	2055	2064	2076	
2758	0	2048	2053	2044	2057	
2759	0	2048	2055	2030	2045	
2760	0	2047	2057	2006	2051	
2761	0	2046	2053	2010	2053	
2762	0	2053	2052	2029	2038	
2763	0	2065	2060	2047	2032	
2764	0	2055	2057	2060	2031	
2765	0	2048	2054	2067	2018	
2766	0	2046	2059	2061	2009	
2767	0	2049	2057	2067	2032	
2768	0	2046	2047	2053	2053	
2769	0	2034	2031	2057	2065	
2770	0	2031	2019	2038	2084	
2771	0	2036	2025	2039	2093	
2772	0	2046	2021	2030	2081	
2773	0	2049	2026	2054	2083	
2774	0	2048	2031	2044	2084	
2775	0	2056	2041	2045	2058	
2776	0	2056	2054	2054	2037	
2777	0	2047	2056	2052	2038	
2778	0	2061	2078	2070	2006	
2779	0	2068	2075	2084	2001	
2780	0	2070	2067	2078	2009	
2781	0	2062	2056	2068	2015	
2782	0	2046	2037	2029	2032	
2783	0	2024	2031	2038	2071	
2784	0	2003	2024	2011	2070	
2785	0	2007	2039	1999	2054	
2786	0	2021	2049	2010	2069	
2787	0	2039	2054	2012	2063	
2788	0	2050	2064	2036	2035	
2789	0	2065	2065	2045	2008	
2790	0	2066	2063	2066	2014	
2791	0	2077	2069	2071	2012	
2792	0	2081	2065	2091	2001	
2793	0	2077	2056	2068	2022	
2794	0	2049	2039	2033	2075	
2795	0	2030	2024	2021	2073	
2796	0	2046	2032	2060	2060	
2797	0	2083	2051	2082	2068	
2798	0	2065	2043	2043	2073	
2799	0	2050	2041	2043	2088	
2800	0	2062	2056	2047	2070	
2801	0	2064	2066	2041	2074	
2802	0	2057	2051	2049	2088	
2803	0	2039	2043	2027	2088	
2804	0	2030	2051	2034	2054	
2805	0	2034	2056	2035	2043	
2806	0	2042	2055	2051	2046	
2807	0	2050	2056	2044	2053	
2808	0	2045	2045	2037	2055	
2809	0	2037	2035	2060	2033	
2810	0	2046	2045	2049	2028	
2811	0	2051	2047	2042	2038	
2812	0	2049	2038	2048	2043	
2813	0	2046	2037	2048	2045	
2814	0	2047	2050	2064	2027	
2815	0	2054	2057	2066	2012	
2816	0	2050	2054	2064	2034	
2817	0	2048	2051	2059	2029	
2818	0	2049	2053	2058	2046	
2819	0	2066	2066	2054	2031	
2820	0	2065	2054	2042	2051	
2821	0	2050	2048	2035	2060	
2822	0	2049	2043	2051	2057	
2823	0	2046	2046	2048	2049	
2824	0	2044	2050	2050	2046	
2825	0	2046	2047	2046	2054	
2826	0	2041	2051	2042	2054	
2827	0	2032	2034	2051	2056	
2828	0	2039	2028	2066	2053	
2829	0	2046	2040	2084	2055	
2830	0	2046	2042	2072	2060	
2831	0	2029	2036	2058	2065	
2832	0	2053	2053	2042	2057	
2833	0	2069	2059	2031	2066	
2834	0	2071	2064	2030	2054	
2835	0	2063	2058	1988	2046	
2836	0	2045	2050	1985	2070	
2837	0	2041	2056	2032	2038	
2838	0	2052	2054	2044	2018	
2839	0	2046	2047	2033	2036	
2840	0	2052	2038	2041	2040	
2841	0	2049	2036	2049	2039	
2842	0	2049	2043	2050	2037	
2843	0	2050	2057	2066	2042	
2844	0	2040	2056	2061	2058	
2845	0	2038	2054	2049	2064	
2846	0	2045	2053	2058	2043	
2847	0	2048	2057	2047	2033	
2848	0	2049	2045	2049	2044	
2849	0	2058	2043	2071	2048	
2850	0	2060	2047	2070	2053	
2851	0	2045	2039	2039	2063	
2852	0	2037	2033	2042	2052	
2853	0	2041	2045	2040	2046	
2854	0	2056	2048	2049	2050	
2855	0	2063	2050	2068	2050	
2856	0	2046	2045	2038	2053	
2857	0	2043	2041	2046	2050	
2858	0	2051	2049	2062	2045	
2859	0	2074	2072	2071	2033	
2860	0	2076	2075	2084	2018	
2861	0	2071	2066	2088	2000	
2862	0	2065	2064	2104	1986	
2863	0	2043	2058	2078	1999	
2864	0	2022	2033	2036	2038	
2865	0	2015	2024	2023	2061	
2866	0	2029	2034	1978	2066	
2867	0	2036	2038	1939	2073	
2868	0	2034	2039	1985	2090	
2869	0	2029	2052	2008	2096	
2870	0	2031	2048	2023	2086	
2871	0	2057	2050	2060	2067	
2872	0	2083	2071	2080	2055	
2873	0	2080	2064	2084	2057	
2874	0	2071	2062	2061	2030	
2875	0	2063	2070	2070	2003	
2876	0	2059	2062	2066	2009	
2877	0	2062	2054	2065	2021	
2878	0	2057	2045	2054	2043	
2879	0	2044	2025	2041	2062	
2880	0	2028	2013	2033	2083	
2881	0	2023	2018	2022	2110	
2882	0	2030	2021	2041	2088	
2883	0	2035	2037	2053	2066	
2884	0	2041	2043	2061	2068	
2885	0	2045	2043	2049	2085	
2886	0	2048	2056	2051	2065	
2887	0	2055	2070	2048	2022	
2888	0	2074	2071	2050	2000	
2889	0	2059	2065	2070	2014	
2890	0	2037	2051	2057	2023	
2891	0	2044	2044	2067	2015	
2892	0	2061	2058	2084	2024	
2893	0	2065	2052	2088	2035	
2894	0	2063	2045	2085	2038	
2895	0	2056	2042	2058	2045	
2896	0	2045	2041	2028	2042	
2897	0	2048	2044	2032	2037	
2898	0	2043	2054	2027	2046	
2899	0	2039	2054	2001	2040	
2900	0	2035	2053	1993	2040	
2901	0	2056	2067	2023	2041	
2902	0	2047	2063	2024	2046	
2903	0	2047	2051	2039	2048	
2904	0	2054	2052	2065	2037	
2905	0	2060	2044	2061	2049	
2906	0	2050	2032	2065	2053	
2907	0	2039	2026	2069	2052	
2908	0	2029	2037	2050	2060	
2909	0	2027	2033	2054	2060	
2910	0	2029	2039	2054	2064	
2911	0	2052	2057	2043	2070	
2912	0	2056	2052	2041	2068	
2913	0	2065	2060	2044	2083	
2914	0	2060	2061	2058	2065	
2915	0	2063	2060	2050	2038	
2916	0	2069	2068	2045	2045	
2917	0	2090	2073	2034	2032	
2918	0	2064	2053	2030	2027	
2919	0	2040	2042	2031	2038	
2920	0	2032	2038	2032	2055	
2921	0	2031	2031	2039	2052	
2922	0	2034	2041	2028	2038	
2923	0	2040	2047	2052	2033	
2924	0	2054	2056	2080	2036	
2925	0	2055	2058	2078	2043	
2926	0	2047	2047	2068	2038	
2927	0	2050	2041	2088	2032	
2928	0	2053	2042	2087	2049	
2929	0	2051	2037	2055	2069	
2930	0	2043	2033	2037	2057	
2931	0	2039	2041	2040	2051	
2932	0	2063	2056	2047	2045	
2933	0	2091	2073	2069	2036	
2934	0	2082	2084	2069	2032	
2935	0	2057	2065	2032	2037	
2936	0	2036	2046	2005	2036	
2937	0	2016	2027	1999	2043	
2938	0	2008	2028	1992	2053	
2939	0	2028	2032	2008	2052	
2940	0	2039	2043	2028	2042	
2941	0	2050	2055	2058	2046	
2942	0	2056	2050	2067	2057	
2943	0	2058	2053	2058	2063	
2944	0	2058	2051	2066	2061	
2945	0	2065	2066	2072	2042	
2946	0	2061	2070	2063	2037	
2947	0	2051	2055	2052	2044	
2948	0	2050	2038	2064	2065	
2949	0	2043	2030	2051	2090	
2950	0	2039	2023	2043	2087	
2951	0	2034	2025	2041	2072	
2952	0	2034	2029	2030	2056	
2953	0	2046	2037	2055	2073	
2954	0	2055	2064	2062	2040	
2955	0	2047	2050	2061	2025	
2956	0	2044	2058	2048	2024	
2957	0	2054	2055	2056	2018	
2958	0	2051	2047	2033	2020	
2959	0	2044	2049	2027	2024	
2960	0	2048	2047	2046	2031	
2961	0	2065	2057	2062	2028	
2962	0	2069	2066	2055	2026	
2963	0	2065	2072	2044	2023	
2964	0	2053	2060	2040	2035	
2965	0	2044	2055	2050	2071	
2966	0	2048	2050	2070	2067	
2967	0	2057	2047	2055	2061	
2968	0	2060	2040	2051	2074	
2969	0	2036	2026	2025	2073	
2970	0	2028	2028	2020	2067	
2971	0	2035	2036	2043	2058	
2972	0	2043	2040	2038	2058	
2973	0	2049	2042	2034	2050	
2974	0	2053	2056	2039	2038	
2975	0	2065	2066	2044	2025	
2976	0	2061	2068	2054	2024	
2977	0	2057	2055	2070	2039	
2978	0	2058	2053	2062	2032	
2979	0	2050	2056	2058	2035	
2980	0	2040	2056	2049	2035	
2981	0	2030	2043	2038	2031	
2982	0	2034	2042	2040	2036	
2983	0	2040	2051	2023	2060	
2984	0	2035	2043	2035	2059	
2985	0	2045	2046	2050	2066	
2986	0	2062	2058	2051	2054	
2987	0	2062	2056	2049	2043	
2988	0	2062	2051	2048	2047	
2989	0	2058	2057	2033	2050	
2990	0	2048	2050	2050	2048	
2991	0	2038	2041	2054	2054	
2992	0	2035	2034	2047	2052	
2993	0	2044	2040	2054	2059	
2994	0	2039	2042	2049	2064	
2995	0	2045	2047	2055	2058	
2996	0	2064	2077	2070	2026	
2997	0	2083	2081	2069	2008	
2998	0	2072	2063	2071	2027	
2999	0	2050	2049	2058	2061	
3000	0	2063	2050	2076	2052	
3001	0	2069	2053	2065	2035	
3002	0	2057	2055	2040	2034	
3003	0	2037	2032	2035	2053	
3004	0	2027	2013	2027	2081	
3005	0	2023	2018	2018	2077	
3006	0	2024	2024	2004	2056	
3007	0	2036	2033	2007	2043	
3008	0	2047	2044	2039	2027	
3009	0	2062	2064	2059	2020	
3010	0	2063	2067	2061	2037	
3011	0	2052	2063	2057	2059	
3012	0	2042	2044	2042	2069	
3013	0	2046	2051	2069	2059	
3014	0	2052	2050	2076	2060	
3015	0	2061	2059	2070	2058	
3016	0	2062	2062	2073	2057	
3017	0	2059	2061	2065	2049	
3018	0	2062	2062	2045	2036	
3019	0	2074	2074	2052	2021	
3020	0	2079	2068	2076	2028	
3021	0	2056	2039	2039	2054	
3022	0	2020	2017	2033	2067	
3023	0	2019	2025	2040	2066	
3024	0	2032	2036	2037	2046	
3025	0	2032	2038	2041	2042	
3026	0	2023	2036	2019	2053	
3027	0	2007	2046	1979	2045	
3028	0	2013	2042	1978	2039	
3029	0	2035	2046	2016	2027	
3030	0	2050	2058	2046	2026	
3031	0	2068	2059	2079	2032	
3032	0	2075	2056	2083	2034	
3033	0	2072	2053	2077	2041	
3034	0	2059	2049	2048	2053	
3035	0	2056	2045	2024	2066	
3036	0	2062	2048	2055	2080	
3037	0	2066	2064	2065	2072	
3038	0	2071	2079	2085	2026	
3039	0	2077	2076	2098	2010	
3040	0	2055	2048	2082	2032	
3041	0	2045	2038	2084	2053	
3042	0	2037	2026	2077	2072	
3043	0	2033	2019	2046	2070	
3044	0	2040	2045	2042	2041	
3045	0	2049	2054	2045	2033	
3046	0	2056	2062	2014	2038	
3047	0	2061	2072	2005	2024	
3048	0	2058	2062	2010	2021	
3049	0	2048	2046	2018	2036	
3050	0	2046	2041	2007	2049	
3051	0	2048	2038	2048	2034	
3052	0	2039	2041	2071	2022	
3053	0	2039	2044	2050	2017	
3054	0	2039	2043	2061	2034	
3055	0	2044	2044	2060	2065	
3056	0	2051	2053	2049	2082	
3057	0	2058	2056	2065	2096	
3058	0	2056	2047	2066	2104	
3059	0	2057	2049	2046	2100	
3060	0	2059	2049	2060	2105	
3061	0	2053	2033	2048	2104	
3062	0	2047	2019	2034	2109	
3063	0	2042	2025	2063	2085	
3064	0	2037	2024	2057	2058	
3065	0	2041	2044	2064	2028	
3066	0	2051	2064	2086	1992	
3067	0	2068	2069	2111	1985	
3068	0	2072	2072	2071	1993	
3069	0	2055	2063	2049	2022	
3070	0	2022	2035	2021	2048	
3071	0	2010	2030	1994	2049	
3072	0	2020	2038	1988	2037	
3073	0	2046	2054	2025	2024	
3074	0	2059	2061	2034	2005	
3075	0	2066	2061	2033	1999	
3076	0	2069	2068	2004	2007	
3077	0	2074	2061	2035	2029	
3078	0	2076	2080	2054	2034	
3079	0	2063	2077	2066	2040	
3080	0	2059	2069	2070	2057	
3081	0	2050	2067	2062	2080	
3082	0	2036	2040	2038	2090	
3083	0	2024	2012	2036	2112	
3084	0	2027	2004	2057	2124	
3085	0	2035	2010	2065	2119	
3086	0	2047	2012	2053	2100	
3087	0	2062	2037	2056	2067	
3088	0	2065	2054	2039	2024	
3089	0	2051	2058	2031	2005	
3090	0	2051	2058	2074	2017	
3091	0	2062	2066	2086	2010	
3092	0	2065	2072	2090	1999	
3093	0	2062	2068	2072	2001	
3094	0	2049	2066	2069	2022	
3095	0	2038	2049	2020	2045	
3096	0	2039	2041	2012	2050	
3097	0	2053	2051	2039	2035	
3098	0	2034	2043	1987	2043	
3099	0	2022	2030	1967	2060	
3100	0	2028	2040	2019	2065	
3101	0	2047	2053	2043	2042	
3102	0	2055	2057	2060	2041	
3103	0	2063	2062	2066	2044	
3104	0	2052	2053	2073	2054	
3105	0	2049	2047	2063	2053	
3106	0	2046	2039	2055	2059	
3107	0	2047	2042	2062	2053	
3108	0	2054	2037	2075	2059	
3109	0	2051	2046	2066	2060	
3110	0	2032	2042	2055	2054	
3111	0	2040	2045	2052	2040	
3112	0	2047	2056	2061	2037	
3113	0	2051	2056	2036	2043	
3114	0	2054	2053	2042	2045	
3115	0	2055	2054	2049	2048	
3116	0	2045	2041	2016	2055	
3117	0	2040	2035	2008	2068	
3118	0	2042	2038	2039	2082	
3119	0	2044	2042	2040	2077	
3120	0	2048	2050	2011	2051	
3121	0	2059	2067	2030	2025	
3122	0	2063	2063	2069	2013	
3123	0	2077	2064	2093	2014	
3124	0	2068	2057	2064	2025	
3125	0	2046	2058	2042	2026	
3126	0	2038	2044	2051	2032	
3127	0	2029	2040	2036	2032	
3128	0	2013	2028	2060	2034	
3129	0	2022	2040	2051	2029	
3130	0	2050	2053	2023	2033	
3131	0	2052	2059	2056	2036	
3132	0	2036	2059	2053	2036	
3133	0	2048	2055	2051	2038	
3134	0	2088	2059	2056	2044	
3135	0	2072	2056	2029	2086	
3136	0	2047	2036	2024	2096	
3137	0	2056	2042	2051	2084	
3138	0	2056	2055	2053	2075	
3139	0	2044	2051	2047	2068	
3140	0	2055	2047	2033	2075	
3141	0	2043	2052	2004	2079	
3142	0	2035	2034	2016	2068	
3143	0	2046	2042	2052	2052	
3144	0	2077	2062	2089	2024	
3145	0	2077	2075	2108	1994	
3146	0	2064	2066	2099	1988	
3147	0	2036	2058	2047	1995	
3148	0	2016	2046	2028	2015	
3149	0	2010	2030	2016	2053	
3150	0	2005	2017	1972	2092	
3151	0	2016	2023	2003	2110	
3152	0	2044	2032	2056	2107	
3153	0	2092	2047	2110	2074	
3154	0	2076	2039	2075	2086	
3155	0	2038	2022	2051	2111	
3156	0	2031	2029	2023	2089	
3157	0	2055	2041	2056	2047	
3158	0	2071	2068	2038	2019	
3159	0	2085	2084	2043	2002	
3160	0	2097	2088	2084	1997	
3161	0	2079	2071	2063	2012	
3162	0	2043	2053	2007	2039	
3163	0	2043	2058	1998	2030	
3164	0	2057	2070	2022	2014	
3165	0	2060	2070	2045	2008	
3166	0	2052	2055	2060	2026	
3167	0	2033	2032	2056	2059	
3168	0	2028	2029	2047	2072	
3169	0	2034	2030	2047	2056	
3170	0	2034	2040	2046	2059	
3171	0	2038	2037	2059	2064	
3172	0	2050	2042	2058	2048	
3173	0	2066	2054	2065	2040	
3174	0	2063	2067	2071	2044	
3175	0	2062	2059	2072	2040	
3176	0	2048	2046	2073	2046	
3177	0	2058	2043	2088	2033	
3178	0	2070	2057	2076	2029	
3179	0	2056	2047	2065	2041	
3180	0	2054	2047	2040	2052	
3181	0	2055	2044	2026	2050	
3182	0	2040	2047	2010	2044	
3183	0	2031	2041	2026	2032	
3184	0	2040	2047	2050	2045	
3185	0	2039	2058	2040	2078	
3186	0	2035	2056	2040	2071	
3187	0	2043	2050	2039	2046	
3188	0	2040	2048	2034	2061	
3189	0	2030	2032	2034	2086	
3190	0	2029	2025	2046	2071	
3191	0	2056	2050	2049	2037	
3192	0	2055	2063	2024	2015	
3193	0	2041	2057	2024	2016	
3194	0	2042	2045	2044	2030	
3195	0	2045	2044	2053	2057	
3196	0	2046	2036	2071	2062	
3197	0	2071	2039	2099	2057	
3198	0	2073	2048	2078	2045	
3199	0	2044	2037	2044	2065	
3200	0	2044	2043	2011	2067	
3201	0	2064	2054	2059	2043	
3202	0	2084	2077	2085	2024	
3203	0	2099	2080	2039	2020	
3204	0	2061	2061	1999	2042	
3205	0	2030	2053	2008	2032	
3206	0	2022	2057	2026	1996	
3207	0	2041	2072	2053	1964	
3208	0	2061	2072	2078	1957	
3209	0	2059	2055	2072	2002	
3210	0	2043	2037	2065	2058	
3211	0	2033	2027	2052	2087	
3212	0	2034	2031	2042	2121	
3213	0	2041	2034	2051	2147	
3214	0	2047	2030	2045	2140	
3215	0	2055	2033	2054	2134	
3216	0	2055	2035	2037	2129	
3217	0	2057	2029	2048	2100	
3218	0	2058	2039	2049	2073	
3219	0	2056	2046	2065	2047	
3220	0	2056	2060	2066	2027	
3221	0	2055	2064	2051	2010	
3222	0	2060	2074	2068	1995	
3223	0	2052	2068	2047	1987	
3224	0	2040	2044	2051	1997	
3225	0	2026	2046	2038	2002	
3226	0	2028	2054	2035	1993	
3227	0	2044	2064	2047	1977	
3228	0	2042	2063	2050	1991	
3229	0	2029	2041	2018	2029	
3230	0	2037	2046	2018	2045	
3231	0	2033	2041	2012	2083	
3232	0	2032	2032	2013	2115	
3233	0	2057	2042	2029	2122	
3234	0	2088	2060	2096	2083	
3235	0	2088	2059	2096	2083	
3236	0	2065	2056	2044	2106	
3237	0	2043	2032	2043	2108	
3238	0	2033	2032	2019	2075	
3239	0	2035	2046	2016	2062	
3240	0	2046	2049	2024	2032	
3241	0	2046	2048	2041	2026	
3242	0	2049	2048	2006	2020	
3243	0	2060	2054	2041	2006	
3244	0	2068	2058	2064	2015	
3245	0	2062	2056	2069	2031	
3246	0	2050	2046	2070	2029	
3247	0	2031	2040	2047	2035	
3248	0	2028	2049	2057	2034	
3249	0	2041	2056	2065	2025	
3250	0	2054	2060	2076	2021	
3251	0	2049	2049	2045	2037	
3252	0	2040	2042	2046	2059	
3253	0	2035	2035	2050	2070	
3254	0	2027	2031	2043	2067	
3255	0	2030	2036	2039	2058	
3256	0	2043	2043	2036	2052	
3257	0	2056	2052	2054	2042	
3258	0	2062	2069	2055	2025	
3259	0	2078	2072	2066	2016	
3260	0	2067	2065	2058	2016	
3261	0	2049	2060	2035	2022	
3262	0	2042	2059	2026	2054	
3263	0	2039	2051	2049	2074	
3264	0	2040	2044	2053	2079	
3265	0	2040	2051	2039	2057	
3266	0	2058	2043	2068	2055	
3267	0	2059	2034	2071	2084	
3268	0	2047	2033	2055	2089	
3269	0	2043	2033	2031	2062	
3270	0	2050	2042	2068	2038	
3271	0	2061	2058	2078	2034	
3272	0	2059	2061	2027	2024	
3273	0	2056	2054	2025	2023	
3274	0	2058	2050	2037	2019	
3275	0	2055	2051	2031	2013	
3276	0	2042	2048	2018	2024	
3277	0	2041	2035	2024	2034	
3278	0	2046	2046	2032	2037	
3279	0	2060	2063	2064	2037	
3280	0	2076	2079	2082	2032	
3281	0	2075	2078	2072	2044	
3282	0	2058	2063	2072	2071	
3283	0	2041	2036	2056	2108	
3284	0	2023	2009	2029	2130	
3285	0	2013	2001	2035	2139	
3286	0	2023	1997	2039	2133	
3287	0	2034	2015	2077	2100	
3288	0	2071	2075	2115	2025	
3289	0	2102	2102	2124	1972	
3290	0	2089	2089	2075	1957	
3291	0	2044	2062	2031	1991	
3292	0	2027	2032	2002	2054	
3293	0	2025	2023	1994	2072	
3294	0	2031	2036	1976	2059	
3295	0	2042	2039	1996	2051	
3296	0	2032	2038	2012	2060	
3297	0	2031	2043	2019	2052	
3298	0	2035	2043	2017	2041	
3299	0	2044	2055	2049	2034	
3300	0	2059	2060	2069	2035	
3301	0	2073	2066	2056	2028	
3302	0	2092	2084	2096	2009	
3303	0	2088	2081	2102	2006	
3304	0	2077	2070	2077	2033	
3305	0	2061	2063	2069	2050	
3306	0	2056	2048	2062	2044	
3307	0	2039	2024	2047	2062	
3308	0	2036	2029	2033	2083	
3309	0	2034	2023	2045	2073	
3310	0	2037	2036	2050	2049	
3311	0	2038	2038	2049	2049	
3312	0	2035	2037	2035	2055	
3313	0	2045	2039	2048	2061	
3314	0	2053	2051	2059	2048	
3315	0	2068	2058	2077	2033	
3316	0	2078	2066	2085	2029	
3317	0	2069	2063	2073	2038	
3318	0	2044	2042	2053	2062	
3319	0	2039	2031	2052	2070	
3320	0	2053	2046	2047	2054	
3321	0	2060	2060	2037	2044	
3322	0	2061	2062	2018	2041	
3323	0	2049	2068	2028	2042	
3324	0	2036	2045	2034	2040	
3325	0	2035	2044	2040	2034	
3326	0	2034	2053	2050	2031	
3327	0	2028	2036	2052	2046	
3328	0	2025	2027	2031	2045	
3329	0	2026	2034	2015	2041	
3330	0	2032	2042	2012	2054	
3331	0	2042	2046	2022	2055	
3332	0	2059	2058	2039	2039	
3333	0	2073	2067	2054	2029	
3334	0	2076	2067	2068	2041	
3335	0	2062	2062	2059	2056	
3336	0	2049	2040	2053	2062	
3337	0	2053	2037	2047	2047	
3338	0	2055	2041	2063	2062	
3339	0	2064	2045	2091	2056	
3340	0	2046	2045	2068	2057	
3341	0	2033	2039	2027	2062	
3342	0	2036	2055	2063	2057	
3343	0	2039	2063	2063	2038	
3344	0	2055	2067	2091	2026	
3345	0	2066	2063	2079	2036	
3346	0	2063	2066	2052	2036	
3347	0	2063	2052	2008	2048	
3348	0	2074	2068	2015	2027	
3349	0	2055	2064	1990	2042	
3350	0	2012	2034	1979	2063	
3351	0	2016	2025	2006	2058	
3352	0	2034	2024	2018	2060	
3353	0	2041	2031	2029	2069	
3354	0	2044	2035	2067	2062	
3355	0	2031	2035	2058	2051	
3356	0	2025	2041	2025	2020	
3357	0	2033	2058	2025	2008	
3358	0	2042	2053	2055	2010	
3359	0	2062	2059	2078	2012	
3360	0	2078	2067	2053	2021	
3361	0	2084	2084	2073	2024	
3362	0	2041	2055	2066	2062	
3363	0	2026	2035	2047	2086	
3364	0	2047	2034	2065	2104	
3365	0	2063	2055	2066	2088	
3366	0	2059	2048	2072	2091	
3367	0	2054	2033	2080	2119	
3368	0	2055	2034	2058	2087	
3369	0	2051	2045	2062	2054	
3370	0	2040	2037	2036	2055	
3371	0	2033	2041	2039	2040	
3372	0	2031	2055	2031	2020	
3373	0	2042	2061	2027	2013	
3374	0	2049	2061	2038	2025	
3375	0	2058	2062	2056	2022	
3376	0	2062	2069	2078	2024	
3377	0	2051	2053	2045	2033	
3378	0	2044	2046	2014	2039	
3379	0	2034	2034	2002	2056	
3380	0	2027	2040	2010	2055	
3381	0	2040	2034	2029	2037	
3382	0	2038	2036	2023	2015	
3383	0	2038	2045	2036	2006	
3384	0	2064	2054	2064	2008	
3385	0	2076	2067	2086	2004	
3386	0	2087	2085	2081	2005	
3387	0	2071	2078	2062	2045	
3388	0	2061	2065	2065	2076	
3389	0	2062	2054	2084	2088	
3390	0	2053	2028	2090	2119	
3391	0	2047	2010	2073	2135	
3392	0	2038	2006	2067	2157	
3393	0	2043	2008	2065	2121	
3394	0	2027	2012	2022	2078	
3395	0	2029	2042	1990	2035	
3396	0	2044	2065	2015	2009	
3397	0	2081	2086	2016	1989	
3398	0	2109	2109	2026	1980	
3399	0	2084	2090	2033	1986	
3400	0	2055	2064	2031	2008	
3401	0	2026	2037	2035	2044	
3402	0	1990	2020	2054	2061	
3403	0	2006	2018	2033	2060	
3404	0	2028	2027	2039	2052	
3405	0	2051	2040	2050	2048	
3406	0	2046	2035	2048	2050	
3407	0	2043	2031	2048	2052	
3408	0	2055	2040	2068	2058	
3409	0	2069	2054	2084	2054	
3410	0	2071	2061	2077	2045	
3411	0	2068	2067	2091	2039	
3412	0	2067	2067	2075	2021	
3413	0	2069	2065	2065	2027	
3414	0	2067	2065	2076	2042	
3415	0	2049	2061	2070	2053	
3416	0	2046	2052	2067	2058	
3417	0	2042	2042	2093	2064	
3418	0	2053	2039	2125	2064	
3419	0	2052	2040	2093	2071	
3420	0	2046	2043	2056	2065	
3421	0	2050	2056	2058	2065	
3422	0	2049	2043	2007	2064	
3423	0	2052	2043	1988	2052	
3424	0	2052	2050	1970	2045	
3425	0	2048	2037	1964	2050	
3426	0	2054	2038	1982	2043	
3427	0	2059	2057	1996	2021	
3428	0	2049	2055	2005	2005	
3429	0	2042	2052	2015	2000	
3430	0	2045	2063	2061	2023	
3431	0	2033	2039	2066	2051	
3432	0	2044	2048	2072	2050	
3433	0	2046	2061	2046	2047	
3434	0	2047	2058	2048	2063	
3435	0	2060	2055	2064	2073	
3436	0	2073	2051	2069	2060	
3437	0	2055	2052	2081	2064	
3438	0	2045	2046	2069	2054	
3439	0	2043	2046	2039	2031	
3440	0	2040	2044	2033	2025	
3441	0	2032	2045	2041	2024	
3442	0	2039	2054	2056	2033	
3443	0	2045	2048	2082	2032	
3444	0	2036	2038	2068	2038	
3445	0	2039	2032	2042	2051	
3446	0	2042	2043	2054	2045	
3447	0	2031	2041	2034	2042	
3448	0	2015	2028	2008	2064	
3449	0	1998	2022	2009	2070	
3450	0	2029	2042	1997	2038	
3451	0	2038	2051	1973	2007	
3452	0	2048	2057	2006	2006	
3453	0	2058	2064	2011	2022	
3454	0	2070	2061	2032	2046	
3455	0	2077	2064	2070	2050	
3456	0	2081	2068	2081	2063	
3457	0	2080	2065	2079	2069	
3458	0	2084	2062	2082	2090	
3459	0	2086	2061	2071	2084	
3460	0	2061	2045	2056	2111	
3461	0	2044	2025	2067	2137	
3462	0	2044	2019	2077	2094	
3463	0	2049	2032	2092	2059	
3464	0	2044	2032	2076	2036	
3465	0	2028	2029	2030	2046	
3466	0	2029	2027	2023	2062	
3467	0	2042	2058	2014	2025	
3468	0	2054	2065	2037	2018	
3469	0	2062	2067	2054	2004	
3470	0	2056	2062	2060	2028	
3471	0	2052	2050	2069	2033	
3472	0	2054	2054	2058	2022	
3473	0	2059	2063	2036	2029	
3474	0	2044	2057	2026	2042	
3475	0	2046	2060	2051	2031	
3476	0	2057	2066	2067	2022	
3477	0	2049	2049	2050	2038	
3478	0	2057	2056	2070	2046	
3479	0	2068	2060	2074	2023	
3480	0	2055	2048	2047	2036	
3481	0	2025	2030	2020	2071	
3482	0	2028	2021	2032	2067	
3483	0	2033	2028	2033	2060	
3484	0	2033	2032	2040	2062	
3485	0	2037	2039	2044	2074	
3486	0	2043	2048	2036	2046	
3487	0	2044	2050	2046	2039	
3488	0	2041	2050	2048	2039	
3489	0	2039	2042	2042	2042	
3490	0	2044	2048	2051	2046	
3491	0	2052	2053	2063	2050	
3492	0	2065	2062	2076	2047	
3493	0	2064	2072	2070	2050	
3494	0	2070	2067	2062	2046	
3495	0	2067	2054	2054	2055	
3496	0	2057	2041	2048	2071	
3497	0	2068	2056	2057	2065	
3498	0	2068	2051	2049	2060	
3499	0	2067	2053	2050	2041	
3500	0	2059	2058	2038	2034	
3501	0	2040	2050	2030	2044	
3502	0	2024	2032	2031	2055	
3503	0	2027	2031	2026	2052	
3504	0	2039	2044	2047	2024	
3505	0	2050	2051	2044	2008	
3506	0	2031	2037	2020	2035	
3507	0	2027	2027	2024	2057	
3508	0	2033	2042	2058	2057	
3509	0	2047	2055	2075	2051	
3510	0	2076	2068	2101	2025	
3511	0	2072	2070	2082	2022	
3512	0	2082	2088	2070	2018	
3513	0	2063	2079	2027	2041	
3514	0	2023	2033	1994	2075	
3515	0	2025	2014	2015	2092	
3516	0	2043	2029	2017	2083	
3517	0	2052	2041	1998	2089	
3518	0	2048	2030	2035	2104	
3519	0	2040	2026	2067	2084	
3520	0	2051	2044	2062	2053	
3521	0	2056	2057	2048	2035	
3522	0	2073	2070	2045	2033	
3523	0	2070	2085	2063	1998	
3524	0	2067	2082	2074	1997	
3525	0	2041	2049	2046	2029	
3526	0	2026	2028	2035	2044	
3527	0	2026	2028	2033	2057	
3528	0	2024	2031	2021	2055	
3529	0	2031	2034	2049	2040	
3530	0	2042	2046	2067	2027	
3531	0	2058	2064	2074	2036	
3532	0	2069	2064	2110	2032	
3533	0	2070	2058	2098	2042	
3534	0	2060	2056	2064	2041	
3535	0	2042	2063	2044	2045	
3536	0	2023	2044	2028	2055	
3537	0	2042	2036	2028	2062	
3538	0	2030	2033	2003	2062	
3539	0	2045	2050	2023	2045	
3540	0	2078	2057	2028	2036	
3541	0	2078	2052	2020	2052	
3542	0	2071	2049	2043	2044	
3543	0	2051	2043	2060	2035	
3544	0	2028	2038	2039	2037	
3545	0	2030	2041	2032	2046	
3546	0	2037	2057	2048	2052	
3547	0	2060	2069	2036	2046	
3548	0	2080	2085	2064	2024	
3549	0	2075	2083	2091	2024	
3550	0	2078	2076	2097	2048	
3551	0	2066	2054	2071	2057	
3552	0	2057	2042	2063	2057	
3553	0	2046	2023	2039	2099	
3554	0	2024	2012	2025	2110	
3555	0	2020	2004	2041	2097	
3556	0	2027	2006	2049	2094	
3557	0	2028	2018	2037	2077	
3558	0	2041	2037	2056	2050	
3559	0	2062	2054	2058	2036	
3560	0	2071	2062	2041	2032	
3561	0	2061	2060	2030	2029	
3562	0	2051	2061	2035	2028	
3563	0	2054	2062	2044	2005	
3564	0	2055	2064	2068	1999	
3565	0	2042	2060	2050	2021	
3566	0	2027	2049	2035	2051	
3567	0	2020	2040	2037	2065	
3568	0	2024	2038	2032	2064	
3569	0	2048	2050	2052	2045	
3570	0	2055	2054	2067	2036	
3571	0	2054	2048	2056	2050	
3572	0	2063	2054	2048	2049	
3573	0	2054	2059	2032	2040	
3574	0	2045	2051	2042	2033	
3575	0	2057	2048	2059	2041	
3576	0	2058	2061	2062	2053	
3577	0	2064	2056	2064	2053	
3578	0	2049	2047	2079	2043	
3579	0	2024	2025	2061	2057	
3580	0	2038	2038	2070	2064	
3581	0	2024	2027	2053	2073	
3582	0	2012	2022	2039	2077	
3583	0	2039	2048	2046	2050	
3584	0	2060	2069	2024	2021	
3585	0	2064	2071	2036	2011	
3586	0	2050	2060	2033	2013	
3587	0	2072	2074	2019	2025	
3588	0	2076	2063	2028	2025	
3589	0	2065	2042	2024	2038	
3590	0	2064	2044	2038	2043	
3591	0	2055	2029	2031	2074	
3592	0	2054	2029	2054	2077	
3593	0	2056	2050	2049	2061	
3594	0	2058	2054	2044	2047	
3595	0	2066	2055	2048	2039	
3596	0	2069	2066	2066	2057	
3597	0	2055	2059	2067	2064	
3598	0	2050	2049	2052	2064	
3599	0	2048	2055	2071	2053	
3600	0	2048	2056	2064	2051	
3601	0	2049	2056	2072	2056	
3602	0	2049	2051	2075	2049	
3603	0	2038	2046	2040	2041	
3604	0	2034	2040	2032	2033	
3605	0	2037	2031	2028	2041	
3606	0	2037	2037	2038	2046	
3607	0	2043	2049	2036	2041	
3608	0	2046	2045	2060	2031	
3609	0	2041	2050	2042	2022	
3610	0	2041	2053	2057	2040	
3611	0	2054	2047	2051	2041	
3612	0	2057	2048	2041	2050	
3613	0	2049	2048	2032	2054	
3614	0	2054	2043	2036	2053	
3615	0	2046	2036	2042	2064	
3616	0	2045	2036	2045	2056	
3617	0	2060	2044	2068	2038	
3618	0	2054	2055	2042	2033	
3619	0	2048	2068	2025	2048	
3620	0	2043	2063	2013	2059	
3621	0	2034	2049	2017	2062	
3622	0	2037	2054	2028	2054	
3623	0	2036	2045	2044	2051	
3624	0	2051	2048	2081	2048	
3625	0	2069	2057	2080	2060	
3626	0	2066	2057	2074	2054	
3627	0	2051	2038	2053	2057	
3628	0	2040	2032	2051	2045	
3629	0	2041	2040	2054	2049	
3630	0	2044	2046	2040	2050	
3631	0	2039	2039	2048	2051	
3632	0	2041	2042	2048	2050	
3633	0	2047	2048	2031	2047	
3634	0	2057	2048	2040	2050	
3635	0	2064	2048	2042	2058	
3636	0	2075	2065	2054	2038	
3637	0	2075	2068	2067	2021	
3638	0	2051	2062	2041	2023	
3639	0	2029	2055	2024	2043	
3640	0	2030	2040	2017	2044	
3641	0	2038	2041	2029	2028	
3642	0	2044	2052	2053	2025	
3643	0	2057	2062	2049	2033	
3644	0	2061	2056	2057	2038	
3645	0	2052	2058	2049	2049	
3646	0	2040	2041	2039	2078	
3647	0	2029	2028	2041	2106	
3648	0	2043	2035	2050	2112	
3649	0	2063	2056	2064	2076	
3650	0	2065	2060	2072	2047	
3651	0	2067	2053	2083	2047	
3652	0	2069	2043	2074	2060	
3653	0	2057	2030	2058	2060	
3654	0	2044	2035	2044	2045	
3655	0	2038	2042	2039	2037	
3656	0	2034	2037	2012	2042	
3657	0	2032	2033	2021	2054	
3658	0	2038	2041	2021	2051	
3659	0	2033	2044	2011	2042	
3660	0	2044	2047	2042	2040	
3661	0	2070	2056	2072	2039	
3662	0	2066	2069	2060	2028	
3663	0	2069	2074	2068	2011	
3664	0	2068	2065	2059	2011	
3665	0	2052	2061	2026	2013	
3666	0	2041	2057	2028	2024	
3667	0	2027	2038	2037	2049	
3668	0	2032	2037	2058	2055	
3669	0	2044	2047	2058	2040	
3670	0	2035	2050	2058	2034	
3671	0	2025	2039	2035	2047	
3672	0	2045	2044	2034	2059	
3673	0	2054	2060	2069	2041	
3674	0	2061	2064	2106	2030	
3675	0	2066	2061	2109	2025	
3676	0	2057	2052	2082	2032	
3677	0	2081	2060	2057	2048	
3678	0	2069	2050	2000	2079	
3679	0	2035	2029	1979	2077	
3680	0	2007	2015	1990	2090	
3681	0	2036	2042	1997	2079	
3682	0	2050	2051	2017	2053	
3683	0	2048	2046	2044	2047	
3684	0	2069	2054	2084	2039	
3685	0	2076	2058	2066	2020	
3686	0	2066	2056	2048	2009	
3687	0	2053	2055	2056	2024	
3688	0	2051	2045	2054	2034	
3689	0	2054	2046	2065	2036	
3690	0	2062	2062	2056	2038	
3691	0	2056	2065	2039	2041	
3692	0	2047	2054	2044	2053	
3693	0	2045	2048	2038	2064	
3694	0	2037	2042	2033	2079	
3695	0	2047	2048	2064	2073	
3696	0	2066	2055	2091	2053	
3697	0	2071	2055	2077	2045	
3698	0	2063	2057	2068	2046	
3699	0	2050	2045	2067	2030	
3700	0	2041	2037	2057	2033	
3701	0	2034	2032	2038	2051	
3702	0	2029	2032	2051	2058	
3703	0	2039	2038	2064	2042	
3704	0	2050	2049	2061	2043	
3705	0	2027	2043	2042	2059	
3706	0	2022	2035	2025	2055	
3707	0	2019	2042	2008	2050	
3708	0	2027	2045	1996	2051	
3709	0	2028	2046	1970	2050	
3710	0	2025	2050	1982	2054	
3711	0	2042	2057	2013	2058	
3712	0	2085	2073	2081	2050	
3713	0	2112	2085	2097	2048	
3714	0	2075	2058	2077	2058	
3715	0	2050	2032	2055	2064	
3716	0	2041	2027	2036	2060	
3717	0	2065	2041	2052	2057	
3718	0	2067	2046	2056	2055	
3719	0	2057	2044	2041	2051	
3720	0	2047	2051	2047	2028	
3721	0	2042	2040	2050	2033	
3722	0	2040	2034	2055	2034	
3723	0	2040	2039	2048	2037	
3724	0	2043	2046	2057	2030	
3725	0	2045	2048	2061	2032	
3726	0	2047	2055	2053	2024	
3727	0	2042	2063	2052	2026	
3728	0	2046	2066	2056	2041	
3729	0	2051	2064	2053	2058	
3730	0	2065	2078	2061	2044	
3731	0	2056	2066	2049	2043	
3732	0	2036	2038	2038	2060	
3733	0	2035	2033	2021	2073	
3734	0	2022	2033	2024	2074	
3735	0	2024	2025	2033	2070	
3736	0	2050	2038	2057	2069	
3737	0	2064	2055	2050	2068	
3738	0	2069	2053	2063	2055	
3739	0	2068	2054	2048	2039	
3740	0	2076	2062	2052	2029	
3741	0	2054	2049	2064	2043	
3742	0	2043	2041	2062	2048	
3743	0	2055	2046	2076	2043	
3744	0	2056	2054	2063	2025	
3745	0	2057	2053	2077	2001	
3746	0	2049	2050	2058	2009	
3747	0	2041	2058	2016	2021	
3748	0	2042	2052	2033	2024	
3749	0	2047	2049	2051	2032	
3750	0	2049	2052	2027	2056	
3751	0	2039	2051	2016	2086	
3752	0	2034	2052	2023	2094	
3753	0	2042	2055	2040	2087	
3754	0	2041	2042	2056	2090	
3755	0	2049	2031	2060	2094	
3756	0	2059	2027	2066	2103	
3757	0	2052	2023	2030	2092	
3758	0	2054	2042	2041	2042	
3759	0	2077	2071	2052	2006	
3760	0	2079	2084	2067	1991	
3761	0	2072	2071	2070	1990	
3762	0	2036	2041	2043	2026	
3763	0	2017	2030	2033	2045	
3764	0	2016	2021	2037	2044	
3765	0	2027	2027	2049	2039	
3766	0	2041	2037	2054	2032	
3767	0	2042	2041	2060	2033	
3768	0	2044	2046	2056	2036	
3769	0	2049	2051	2040	2034	
3770	0	2041	2054	2038	2047	
3771	0	2049	2063	2041	2079	
3772	0	2064	2070	2051	2078	
3773	0	2076	2071	2068	2055	
3774	0	2078	2067	2068	2034	
3775	0	2057	2053	2041	2049	
3776	0	2053	2038	2056	2063	
3777	0	2049	2042	2058	2055	
3778	0	2049	2050	2038	2055	
3779	0	2051	2056	2022	2044	
3780	0	2066	2061	2027	2029	
3781	0	2075	2054	2071	2027	
3782	0	2072	2061	2056	2030	
3783	0	2056	2051	2055	2041	
3784	0	2051	2049	2051	2045	
3785	0	2023	2039	2040	2046	
3786	0	2000	2033	2042	2045	
3787	0	2012	2025	2068	2050	
3788	0	2028	2032	2078	2054	
3789	0	2025	2038	2052	2034	
3790	0	2018	2046	2002	2028	
3791	0	2039	2045	2050	2023	
3792	0	2045	2038	2039	2026	
3793	0	2060	2049	2031	2029	
3794	0	2074	2062	2073	2046	
3795	0	2089	2065	2056	2066	
3796	0	2084	2075	2009	2077	
3797	0	2091	2079	2005	2081	
3798	0	2089	2070	2013	2082	
3799	0	2089	2071	2065	2075	
3800	0	2080	2068	2099	2064	
3801	0	2046	2039	2057	2067	
3802	0	2011	2017	2037	2058	
3803	0	2004	2013	2025	2038	
3804	0	2019	2034	2024	2037	
3805	0	2027	2036	2039	2039	
3806	0	2042	2037	2050	2045	
3807	0	2052	2051	2058	2027	
3808	0	2049	2059	2071	2025	
3809	0	2057	2057	2077	2040	
3810	0	2053	2054	2062	2032	
3811	0	2051	2055	2068	2029	
3812	0	2051	2051	2066	2049	
3813	0	2049	2045	2042	2070	
3814	0	2052	2051	2057	2062	
3815	0	2053	2060	2060	2053	
3816	0	2046	2046	2037	2055	
3817	0	2039	2037	2035	2050	
3818	0	2039	2049	2037	2055	
3819	0	2038	2043	2026	2063	
3820	0	2041	2041	2041	2046	
3821	0	2050	2051	2033	2028	
3822	0	2048	2054	2039	2035	
3823	0	2059	2054	2052	2041	
3824	0	2068	2056	2069	2040	
3825	0	2052	2050	2060	2051	
3826	0	2046	2047	2031	2042	
3827	0	2055	2061	2048	2019	
3828	0	2059	2069	2060	2025	
3829	0	2050	2052	2058	2033	
3830	0	2035	2029	2059	2049	
3831	0	2032	2022	2063	2060	
3832	0	2026	2023	2056	2068	
3833	0	2035	2032	2042	2071	
3834	0	2045	2045	2063	2066	
3835	0	2057	2054	2049	2055	
3836	0	2062	2063	2027	2050	
3837	0	2074	2070	2026	2029	
3838	0	2070	2066	2021	2033	
3839	0	2072	2064	2043	2047	
3840	0	2058	2048	2049	2069	
3841	0	2040	2036	2041	2069	
3842	0	2031	2030	2014	2061	
3843	0	2048	2044	2020	2046	
3844	0	2038	2043	2017	2054	
3845	0	2043	2052	2034	2047	
3846	0	2054	2060	2051	2039	
3847	0	2046	2051	2062	2024	
3848	0	2042	2045	2069	2011	
3849	0	2047	2048	2074	2005	
3850	0	2046	2052	2062	2026	
3851	0	2047	2056	2061	2028	
3852	0	2065	2062	2051	2032	
3853	0	2074	2070	2071	2026	
3854	0	2060	2064	2075	2033	
3855	0	2049	2045	2060	2076	
3856	0	2038	2023	2067	2106	
3857	0	2028	2021	2056	2108	
3858	0	2033	2022	2041	2101	
3859	0	2042	2027	2023	2107	
3860	0	2071	2057	2035	2092	
3861	0	2087	2069	2018	2050	
3862	0	2052	2052	2009	2038	
3863	0	2035	2051	2031	2025	
3864	0	2036	2059	2041	2023	
3865	0	2038	2062	2044	2013	
3866	0	2043	2064	2050	1999	
3867	0	2043	2059	2073	1994	
3868	0	2055	2048	2082	2023	
3869	0	2034	2030	2052	2054	
3870	0	2018	2029	2020	2066	
3871	0	2021	2028	2007	2062	
3872	0	2046	2040	2030	2067	
3873	0	2052	2048	2035	2083	
3874	0	2059	2055	2056	2072	
3875	0	2057	2054	2070	2065	
3876	0	2069	2047	2062	2065	
3877	0	2069	2053	2052	2056	
3878	0	2068	2058	2075	2051	
3879	0	2073	2060	2070	2035	
3880	0	2071	2067	2071	2015	
3881	0	2067	2076	2060	2002	
3882	0	2062	2062	2069	2026	
3883	0	2037	2043	2042	2044	
3884	0	2029	2030	2047	2055	
3885	0	2038	2030	2062	2059	
3886	0	2049	2050	2071	2058	
3887	0	2047	2040	2048	2043	
3888	0	2039	2041	2019	2042	
3889	0	2029	2045	2025	2044	
3890	0	2023	2040	2019	2041	
3891	0	2027	2042	2033	2041	
3892	0	2039	2036	2046	2052	
3893	0	2054	2040	2063	2049	
3894	0	2054	2054	2048	2046	
3895	0	2054	2055	2052	2058	
3896	0	2049	2049	2027	2070	
3897	0	2049	2062	2033	2062	
3898	0	2068	2071	2032	2048	
3899	0	2084	2078	2042	2026	
3900	0	2066	2072	2061	2046	
3901	0	2062	2062	2078	2038	
3902	0	2072	2060	2098	2035	
3903	0	2059	2056	2059	2041	
3904	0	2036	2037	2030	2050	
3905	0	2024	2026	2003	2064	
3906	0	2030	2028	1993	2060	
3907	0	2025	2032	2016	2058	
3908	0	2017	2028	2027	2058	
3909	0	2030	2028	2034	2062	
3910	0	2047	2048	2054	2052	
3911	0	2044	2040	2056	2045	
3912	0	2043	2036	2039	2048	
3913	0	2039	2050	2047	2054	
3914	0	2054	2056	2068	2040	
3915	0	2071	2065	2085	2019	
3916	0	2091	2077	2086	2022	
3917	0	2089	2072	2065	2030	
3918	0	2062	2055	2060	2030	
3919	0	2053	2049	2061	2048	
3920	0	2028	2038	2054	2068	
3921	0	2039	2036	2049	2058	
3922	0	2038	2041	2050	2045	
3923	0	2039	2065	2036	2040	
3924	0	2052	2080	2039	2027	
3925	0	2056	2072	2027	2029	
3926	0	2062	2056	2045	2032	
3927	0	2070	2049	2063	2034	
3928	0	2059	2038	2065	2054	
3929	0	2037	2025	2055	2069	
3930	0	2031	2018	2044	2078	
3931	0	2039	2029	2058	2062	
3932	0	2051	2046	2051	2046	
3933	0	2057	2049	2037	2038	
3934	0	2051	2050	2030	2034	
3935	0	2053	2056	2029	2034	
3936	0	2057	2058	2050	2041	
3937	0	2049	2051	2017	2050	
3938	0	2044	2041	2019	2062	
3939	0	2040	2040	2021	2082	
3940	0	2036	2040	2011	2085	
3941	0	2034	2040	2033	2079	
3942	0	2041	2045	2052	2072	
3943	0	2055	2056	2079	2061	
3944	0	2061	2066	2090	2047	
3945	0	2055	2061	2066	2037	
3946	0	2052	2049	2048	2049	
3947	0	2045	2037	2057	2054	
3948	0	2041	2024	2062	2065	
3949	0	2040	2024	2039	2054	
3950	0	2045	2032	2049	2047	
3951	0	2049	2037	2055	2057	
3952	0	2047	2048	2055	2033	
3953	0	2056	2077	2053	1997	
3954	0	2068	2093	2054	1980	
3955	0	2066	2073	2047	2002	
3956	0	2045	2053	2054	2039	
3957	0	2026	2047	2039	2045	
3958	0	2046	2051	2038	2036	
3959	0	2058	2048	2049	2044	
3960	0	2067	2045	2042	2059	
3961	0	2061	2037	1996	2072	
3962	0	2041	2037	2006	2079	
3963	0	2035	2038	2024	2068	
3964	0	2035	2046	2041	2062	
3965	0	2045	2047	2054	2046	
3966	0	2048	2048	2047	2038	
3967	0	2043	2046	2064	2034	
3968	0	2057	2065	2067	2015	
3969	0	2061	2067	2065	2012	
3970	0	2067	2061	2086	2013	
3971	0	2071	2059	2088	2037	
3972	0	2059	2049	2068	2065	
3973	0	2046	2044	2049	2083	
3974	0	2044	2043	2046	2067	
3975	0	2041	2035	2041	2069	
3976	0	2047	2034	2035	2067	
3977	0	2046	2033	2043	2062	
3978	0	2042	2036	2042	2070	
3979	0	2049	2046	2037	2061	
3980	0	2049	2053	2046	2049	
3981	0	2048	2057	2037	2044	
3982	0	2049	2057	2046	2038	
3983	0	2051	2056	2058	2039	
3984	0	2048	2050	2059	2036	
3985	0	2052	2052	2078	2039	
3986	0	2047	2054	2060	2040	
3987	0	2043	2050	2055	2032	
3988	0	2037	2045	2041	2044	
3989	0	2024	2039	2021	2043	
3990	0	2035	2047	2025	2030	
3991	0	2044	2049	2008	2032	
3992	0	2040	2042	2027	2052	
3993	0	2038	2040	2039	2071	
3994	0	2062	2048	2049	2060	
3995	0	2079	2055	2067	2055	
3996	0	2076	2056	2065	2064	
3997	0	2073	2059	2060	2055	
3998	0	2072	2068	2048	2051	
3999	0	2065	2065	2055	2041	
4000	0	2056	2056	2050	2034	
4001	0	2045	2050	2025	2044	
4002	0	2039	2039	2037	2050	
4003	0	2036	2040	2037	2051	
4004	0	2038	2042	2032	2051	
4005	0	2034	2042	2053	2056	
4006	0	2033	2042	2048	2045	
4007	0	2040	2038	2054	2039	
4008	0	2040	2038	2053	2036	
4009	0	2050	2048	2038	2038	
4010	0	2050	2056	2056	2036	
4011	0	2048	2048	2058	2041	
4012	0	2056	2051	2050	2038	
4013	0	2050	2055	2060	2040	
4014	0	2040	2041	2065	2048	
4015	0	2038	2035	2047	2055	
4016	0	2042	2038	2058	2056	
4017	0	2052	2049	2073	2050	
4018	0	2083	2069	2082	2018	
4019	0	2088	2075	2040	1995	
4020	0	2061	2058	1997	2008	
4021	0	2039	2044	2000	2023	
4022	0	2031	2056	2024	2030	
4023	0	2038	2057	2049	2036	
4024	0	2046	2057	2068	2056	
4025	0	2053	2052	2072	2080	
4026	0	2061	2058	2078	2107	
4027	0	2052	2051	2073	2106	
4028	0	2046	2029	2045	2108	
4029	0	2044	2015	2022	2134	
4030	0	2041	2013	2016	2118	
4031	0	2058	2039	2028	2077	
4032	0	2058	2047	2038	2040	
4033	0	2054	2051	2018	2016	
4034	0	2049	2056	2016	2015	
4035	0	2047	2056	2071	2002	
4036	0	2048	2061	2072	2010	
4037	0	2058	2071	2065	2012	
4038	0	2058	2063	2051	2009	
4039	0	2047	2048	2051	2034	
4040	0	2040	2033	2035	2055	
4041	0	2035	2030	2037	2062	
4042	0	2034	2033	2053	2062	
4043	0	2039	2042	2072	2052	
4044	0	2041	2039	2075	2052	
4045	0	2036	2042	2064	2047	
4046	0	2040	2054	2054	2034	
4047	0	2062	2070	2057	2020	
4048	0	2079	2075	2058	2016	
4049	0	2056	2056	2023	2040	
4050	0	2039	2050	2008	2047	
4051	0	2043	2044	2029	2055	
4052	0	2054	2050	2048	2056	
4053	0	2067	2060	2074	2048	
4054	0	2065	2062	2076	2048	
4055	0	2062	2068	2071	2050	
4056	0	2055	2060	2048	2055	
4057	0	2049	2052	2040	2053	
4058	0	2043	2048	2040	2055	
4059	0	2047	2047	2047	2051	
4060	0	2048	2048	2056	2040	
4061	0	2049	2041	2056	2040	
4062	0	2040	2038	2052	2048	
4063	0	2030	2026	2036	2057	
4064	0	2029	2025	2032	2064	
4065	0	2035	2027	2052	2062	
4066	0	2036	2030	2064	2053	
4067	0	2039	2042	2063	2040	
4068	0	2059	2055	2093	2023	
4069	0	2072	2063	2117	2007	
4070	0	2091	2067	2092	1997	
4071	0	2063	2062	2009	2001	
4072	0	2054	2054	2020	2018	
4073	0	2050	2058	2032	2028	
4074	0	2051	2066	2035	2038	
4075	0	2044	2058	2030	2069	
4076	0	2041	2054	2034	2102	
4077	0	2044	2048	2026	2123	
4078	0	2040	2045	2000	2125	
4079	0	2022	2038	1976	2105	
4080	0	2036	2037	2011	2094	
4081	0	2050	2037	2033	2088	
4082	0	2054	2045	2049	2070	
4083	0	2060	2054	2061	2040	
4084	0	2054	2059	2069	2009	
4085	0	2048	2050	2058	2004	
4086	0	2053	2045	2063	2012	
4087	0	2062	2051	2065	2030	
4088	0	2066	2050	2060	2022	
4089	0	2049	2030	2067	2042	
4090	0	2034	2031	2049	2060	
4091	0	2038	2039	2046	2043	
4092	0	2047	2057	2043	2041	
4093	0	2055	2068	2053	2042	
4094	0	2062	2073	2047	2025	
4095	0	2058	2063	2033	2028	
4096	0	2049	2051	2039	2040	
4097	0	2046	2041	2047	2061	
4098	0	2047	2043	2050	2062	
4099	0	2044	2049	2047	2052	
4100	0	2049	2051	2038	2051	
4101	0	2052	2046	2050	2052	
4102	0	2047	2046	2055	2057	
4103	0	2052	2052	2053	2043	
4104	0	2054	2056	2051	2037	
4105	0	2051	2050	2057	2043	
4106	0	2045	2050	2051	2043	
4107	0	2046	2047	2046	2031	
4108	0	2042	2041	2040	2042	
4109	0	2041	2042	2036	2053	
4110	0	2057	2055	2078	2034	
4111	0	2055	2049	2052	2046	
4112	0	2048	2039	2025	2055	
4113	0	2031	2026	2029	2071	
4114	0	2038	2035	2036	2060	
4115	0	2053	2051	2032	2063	
4116	0	2053	2053	2038	2064	
4117	0	2052	2056	2059	2053	
4118	0	2056	2055	2084	2041	
4119	0	2052	2053	2073	2046	
4120	0	2055	2058	2063	2045	
4121	0	2063	2062	2056	2023	
4122	0	2065	2061	2083	2022	
4123	0	2071	2065	2063	2022	
4124	0	2061	2060	2040	2030	
4125	0	2040	2045	2045	2044	
4126	0	2038	2037	2023	2046	
4127	0	2022	2026	1984	2045	
4128	0	2028	2029	1991	2064	
4129	0	2034	2031	2007	2067	
4130	0	2039	2039	2030	2065	
4131	0	2041	2040	2023	2084	
4132	0	2037	2036	2060	2072	
4133	0	2049	2057	2101	2044	
4134	0	2066	2069	2120	2022	
4135	0	2078	2070	2100	2019	
4136	0	2076	2069	2089	2045	
4137	0	2062	2059	2044	2055	
4138	0	2052	2049	2021	2049	
4139	0	2065	2058	2034	2036	
4140	0	2052	2063	2026	2040	
4141	0	2039	2039	2028	2056	
4142	0	2033	2027	2035	2064	
4143	0	2052	2038	2058	2049	
4144	0	2050	2037	2041	2047	
4145	0	2046	2043	2037	2054	
4146	0	2047	2051	2062	2029	
4147	0	2050	2063	2059	2003	
4148	0	2042	2053	2047	1996	
4149	0	2041	2042	2033	2013	
4150	0	2042	2054	2043	2043	
4151	0	2049	2052	2066	2052	
4152	0	2059	2044	2075	2067	
