# OpenSignals Text File Format
# {"00:07:80:3B:46:6F": {"sensor": ["EMG", "EMG", "EMG", "EMG"], "device name": "00:07:80:3B:46:6F", "column": ["nSeq", "DI", "Direito Multi", "Esquerdo Multi", "Direito ES", "Esquerdo ES"], "sync interval": 2, "time": "12:46:33.749", "comments": "", "device connection": "BTH00:07:80:3B:46:6F", "channels": [1, 2, 3, 4], "date": "2016-9-26", "mode": 0, "digital IO": [0, 1], "firmware version": 514, "device": "bioplux", "position": 0, "sampling rate": 1000, "label": ["Direito Multi", "Esquerdo Multi", "Direito ES", "Esquerdo ES"], "resolution": [12, 12, 12, 12], "special": [{}, {}, {}, {}]}}
# EndOfHeader
0	0	2054	2046	2052	2046	
1	0	2054	2044	2049	2048	
2	0	2055	2048	2052	2057	
3	0	2048	2049	2050	2044	
4	0	2053	2052	2047	2050	
5	0	2051	2055	2044	2052	
6	0	2049	2049	2040	2042	
7	0	2050	2054	2048	2053	
8	0	2046	2047	2042	2048	
9	0	2046	2046	2040	2037	
10	0	2045	2043	2050	2052	
11	0	2046	2044	2045	2047	
12	0	2042	2049	2036	2038	
13	0	2049	2051	2052	2050	
14	0	2044	2046	2046	2047	
15	0	2049	2048	2048	2038	
16	0	2051	2047	2053	2052	
17	0	2051	2049	2052	2052	
18	0	2051	2046	2042	2041	
19	0	2053	2046	2054	2052	
20	0	2053	2044	2057	2060	
21	0	2055	2043	2043	2058	
22	0	2052	2046	2048	2049	
23	0	2049	2047	2047	2054	
24	0	2052	2049	2049	2061	
25	0	2046	2050	2043	2042	
26	0	2051	2063	2036	2031	
27	0	2052	2064	2050	2030	
28	0	2049	2056	2051	2048	
29	0	2046	2050	2042	2060	
30	0	2049	2050	2046	2043	
31	0	2049	2050	2034	2040	
32	0	2043	2051	2043	2040	
33	0	2040	2046	2048	2052	
34	0	2048	2044	2051	2056	
35	0	2051	2040	2043	2053	
36	0	2048	2035	2050	2039	
37	0	2039	2038	2038	2036	
38	0	2041	2038	2054	2056	
39	0	2051	2052	2063	2046	
40	0	2052	2057	2051	2048	
41	0	2060	2063	2055	2049	
42	0	2064	2058	2050	2044	
43	0	2068	2060	2056	2039	
44	0	2059	2058	2050	2044	
45	0	2051	2049	2047	2049	
46	0	2048	2043	2044	2046	
47	0	2045	2046	2044	2048	
48	0	2047	2047	2040	2063	
49	0	2041	2032	2031	2054	
50	0	2041	2033	2042	2044	
51	0	2040	2043	2037	2030	
52	0	2051	2053	2053	2027	
53	0	2049	2050	2046	2055	
54	0	2048	2048	2053	2066	
55	0	2054	2050	2047	2053	
56	0	2052	2049	2053	2051	
57	0	2049	2047	2050	2042	
58	0	2052	2049	2053	2041	
59	0	2056	2056	2058	2049	
60	0	2054	2050	2055	2054	
61	0	2050	2052	2059	2049	
62	0	2051	2052	2054	2044	
63	0	2053	2051	2053	2041	
64	0	2050	2054	2045	2042	
65	0	2049	2051	2049	2053	
66	0	2048	2049	2038	2050	
67	0	2049	2050	2049	2037	
68	0	2045	2047	2039	2038	
69	0	2046	2041	2045	2042	
70	0	2041	2041	2040	2063	
71	0	2045	2043	2050	2054	
72	0	2047	2048	2042	2050	
73	0	2042	2047	2050	2046	
74	0	2043	2053	2042	2047	
75	0	2051	2050	2055	2044	
76	0	2050	2048	2046	2040	
77	0	2051	2051	2053	2040	
78	0	2053	2053	2053	2055	
79	0	2053	2056	2055	2061	
80	0	2058	2054	2052	2055	
81	0	2056	2052	2053	2047	
82	0	2053	2046	2049	2043	
83	0	2054	2046	2043	2043	
84	0	2052	2043	2046	2045	
85	0	2051	2045	2040	2053	
86	0	2043	2041	2046	2052	
87	0	2041	2045	2051	2046	
88	0	2053	2053	2052	2033	
89	0	2046	2047	2052	2033	
90	0	2045	2050	2050	2040	
91	0	2043	2055	2047	2053	
92	0	2046	2064	2048	2050	
93	0	2040	2053	2047	2056	
94	0	2046	2046	2047	2054	
95	0	2051	2048	2053	2049	
96	0	2056	2044	2049	2044	
97	0	2046	2034	2042	2045	
98	0	2053	2044	2048	2040	
99	0	2054	2050	2051	2043	
100	0	2055	2047	2049	2054	
101	0	2050	2039	2053	2063	
102	0	2052	2040	2054	2048	
103	0	2055	2046	2052	2043	
104	0	2053	2055	2051	2036	
105	0	2050	2052	2051	2037	
106	0	2047	2054	2048	2050	
107	0	2047	2048	2044	2050	
108	0	2045	2051	2038	2045	
109	0	2048	2051	2037	2040	
110	0	2044	2055	2048	2038	
111	0	2040	2051	2045	2038	
112	0	2042	2048	2047	2051	
113	0	2050	2052	2052	2043	
114	0	2049	2046	2044	2043	
115	0	2054	2058	2058	2037	
116	0	2057	2064	2063	2038	
117	0	2055	2060	2058	2052	
118	0	2050	2045	2052	2058	
119	0	2053	2046	2044	2059	
120	0	2051	2050	2050	2059	
121	0	2051	2051	2055	2057	
122	0	2053	2059	2055	2059	
123	0	2052	2054	2053	2055	
124	0	2052	2055	2042	2050	
125	0	2049	2046	2056	2047	
126	0	2043	2039	2054	2051	
127	0	2042	2034	2050	2051	
128	0	2041	2034	2043	2046	
129	0	2046	2052	2038	2036	
130	0	2046	2060	2044	2036	
131	0	2044	2044	2045	2054	
132	0	2045	2036	2042	2038	
133	0	2052	2051	2043	2047	
134	0	2051	2058	2040	2050	
135	0	2053	2069	2045	2040	
136	0	2049	2054	2035	2070	
137	0	2044	2036	2047	2065	
138	0	2045	2019	2052	2068	
139	0	2051	2031	2049	2065	
140	0	2062	2045	2050	2044	
141	0	2064	2064	2048	2029	
142	0	2061	2070	2053	2022	
143	0	2059	2061	2046	2022	
144	0	2052	2057	2049	2033	
145	0	2047	2058	2054	2033	
146	0	2049	2052	2051	2033	
147	0	2053	2051	2049	2022	
148	0	2049	2051	2039	2029	
149	0	2042	2047	2052	2056	
150	0	2038	2044	2046	2082	
151	0	2047	2050	2046	2058	
152	0	2049	2047	2045	2050	
153	0	2046	2048	2038	2042	
154	0	2046	2050	2050	2053	
155	0	2047	2051	2048	2061	
156	0	2050	2054	2052	2052	
157	0	2050	2049	2053	2044	
158	0	2047	2046	2050	2041	
159	0	2047	2045	2052	2043	
160	0	2050	2043	2039	2060	
161	0	2051	2044	2045	2059	
162	0	2056	2047	2043	2052	
163	0	2056	2047	2055	2049	
164	0	2055	2053	2057	2042	
165	0	2054	2053	2058	2049	
166	0	2054	2049	2057	2057	
167	0	2050	2048	2056	2051	
168	0	2044	2047	2054	2046	
169	0	2046	2048	2043	2045	
170	0	2043	2049	2041	2055	
171	0	2046	2045	2034	2047	
172	0	2044	2046	2049	2036	
173	0	2043	2044	2046	2048	
174	0	2047	2046	2048	2056	
175	0	2054	2046	2045	2050	
176	0	2050	2045	2047	2040	
177	0	2051	2049	2042	2041	
178	0	2052	2052	2035	2053	
179	0	2050	2050	2043	2047	
180	0	2051	2052	2040	2042	
181	0	2049	2053	2050	2040	
182	0	2049	2054	2049	2049	
183	0	2043	2051	2043	2055	
184	0	2047	2041	2051	2049	
185	0	2050	2041	2051	2042	
186	0	2053	2044	2056	2044	
187	0	2052	2041	2051	2051	
188	0	2047	2046	2042	2048	
189	0	2046	2047	2053	2044	
190	0	2048	2045	2050	2042	
191	0	2048	2046	2053	2052	
192	0	2046	2053	2053	2049	
193	0	2053	2062	2050	2045	
194	0	2053	2061	2047	2036	
195	0	2051	2058	2044	2039	
196	0	2051	2054	2050	2052	
197	0	2051	2051	2038	2059	
198	0	2050	2051	2053	2052	
199	0	2052	2057	2056	2046	
200	0	2052	2057	2051	2047	
201	0	2049	2062	2053	2055	
202	0	2049	2056	2053	2061	
203	0	2052	2047	2052	2057	
204	0	2054	2043	2048	2048	
205	0	2055	2031	2048	2040	
206	0	2048	2027	2039	2042	
207	0	2050	2041	2045	2060	
208	0	2048	2051	2041	2050	
209	0	2049	2056	2050	2047	
210	0	2042	2058	2043	2036	
211	0	2046	2061	2049	2031	
212	0	2047	2039	2049	2045	
213	0	2044	2038	2043	2048	
214	0	2050	2045	2051	2044	
215	0	2051	2052	2049	2043	
216	0	2049	2054	2053	2042	
217	0	2048	2050	2046	2052	
218	0	2051	2050	2047	2051	
219	0	2051	2048	2039	2057	
220	0	2053	2047	2043	2053	
221	0	2052	2047	2044	2044	
222	0	2056	2046	2060	2040	
223	0	2055	2050	2061	2040	
224	0	2054	2052	2059	2048	
225	0	2047	2051	2052	2057	
226	0	2046	2050	2046	2054	
227	0	2045	2050	2044	2052	
228	0	2042	2048	2040	2041	
229	0	2041	2045	2041	2036	
230	0	2044	2046	2038	2036	
231	0	2047	2049	2054	2047	
232	0	2046	2051	2048	2052	
233	0	2046	2049	2052	2048	
234	0	2049	2053	2058	2043	
235	0	2047	2052	2045	2044	
236	0	2054	2049	2047	2047	
237	0	2052	2045	2044	2053	
238	0	2053	2052	2036	2049	
239	0	2055	2054	2049	2054	
240	0	2056	2049	2048	2041	
241	0	2053	2055	2040	2059	
242	0	2055	2050	2053	2048	
243	0	2050	2047	2053	2052	
244	0	2050	2052	2054	2054	
245	0	2047	2046	2046	2044	
246	0	2047	2048	2054	2055	
247	0	2046	2050	2043	2040	
248	0	2047	2048	2038	2045	
249	0	2045	2044	2049	2036	
250	0	2045	2051	2048	2044	
251	0	2040	2050	2042	2047	
252	0	2041	2041	2051	2042	
253	0	2043	2042	2044	2055	
254	0	2048	2047	2038	2045	
255	0	2046	2045	2043	2052	
256	0	2053	2048	2054	2041	
257	0	2053	2057	2045	2054	
258	0	2052	2053	2054	2048	
259	0	2053	2051	2044	2058	
260	0	2061	2049	2057	2047	
261	0	2063	2055	2050	2057	
262	0	2058	2053	2058	2047	
263	0	2053	2051	2046	2058	
264	0	2051	2049	2047	2045	
265	0	2048	2058	2054	2053	
266	0	2049	2050	2044	2039	
267	0	2047	2050	2049	2050	
268	0	2044	2047	2034	2039	
269	0	2039	2050	2035	2052	
270	0	2044	2050	2045	2052	
271	0	2047	2052	2040	2044	
272	0	2048	2051	2045	2045	
273	0	2048	2046	2043	2044	
274	0	2044	2043	2051	2042	
275	0	2049	2045	2042	2043	
276	0	2053	2047	2045	2042	
277	0	2049	2049	2038	2050	
278	0	2051	2048	2049	2057	
279	0	2051	2052	2044	2053	
280	0	2051	2052	2052	2046	
281	0	2055	2050	2050	2040	
282	0	2055	2054	2056	2044	
283	0	2054	2053	2059	2048	
284	0	2052	2051	2050	2057	
285	0	2052	2050	2047	2054	
286	0	2046	2048	2046	2043	
287	0	2048	2051	2040	2048	
288	0	2048	2049	2050	2046	
289	0	2044	2044	2044	2043	
290	0	2044	2048	2050	2047	
291	0	2045	2048	2039	2044	
292	0	2044	2044	2038	2041	
293	0	2043	2041	2045	2054	
294	0	2046	2050	2041	2039	
295	0	2047	2044	2046	2061	
296	0	2051	2044	2052	2045	
297	0	2052	2052	2037	2057	
298	0	2054	2047	2047	2043	
299	0	2054	2046	2056	2052	
300	0	2056	2049	2056	2043	
301	0	2056	2051	2059	2054	
302	0	2056	2052	2050	2046	
303	0	2051	2050	2056	2050	
304	0	2052	2051	2056	2046	
305	0	2050	2054	2049	2052	
306	0	2051	2048	2053	2047	
307	0	2050	2048	2045	2047	
308	0	2046	2051	2034	2044	
309	0	2042	2049	2042	2049	
310	0	2045	2046	2041	2050	
311	0	2043	2048	2049	2039	
312	0	2047	2051	2042	2039	
313	0	2047	2051	2044	2043	
314	0	2050	2051	2043	2048	
315	0	2046	2055	2054	2051	
316	0	2051	2052	2051	2052	
317	0	2052	2052	2051	2046	
318	0	2049	2048	2047	2050	
319	0	2055	2047	2052	2043	
320	0	2054	2048	2042	2041	
321	0	2052	2048	2046	2054	
322	0	2052	2046	2039	2056	
323	0	2054	2050	2040	2054	
324	0	2051	2055	2038	2051	
325	0	2045	2055	2050	2044	
326	0	2046	2055	2048	2040	
327	0	2044	2049	2054	2044	
328	0	2043	2043	2052	2044	
329	0	2044	2045	2042	2048	
330	0	2046	2044	2047	2053	
331	0	2048	2047	2042	2046	
332	0	2045	2049	2047	2043	
333	0	2049	2046	2047	2038	
334	0	2054	2050	2050	2040	
335	0	2047	2052	2040	2044	
336	0	2049	2054	2045	2047	
337	0	2049	2051	2040	2054	
338	0	2050	2046	2052	2051	
339	0	2055	2046	2052	2050	
340	0	2055	2050	2059	2053	
341	0	2053	2050	2055	2051	
342	0	2053	2056	2056	2045	
343	0	2054	2055	2059	2042	
344	0	2056	2052	2052	2039	
345	0	2054	2054	2053	2042	
346	0	2049	2052	2049	2047	
347	0	2050	2050	2046	2050	
348	0	2044	2047	2039	2049	
349	0	2045	2042	2045	2052	
350	0	2042	2043	2038	2053	
351	0	2045	2046	2038	2046	
352	0	2047	2048	2038	2044	
353	0	2048	2048	2046	2045	
354	0	2044	2045	2034	2042	
355	0	2044	2047	2049	2051	
356	0	2047	2051	2048	2053	
357	0	2045	2050	2048	2053	
358	0	2051	2047	2057	2050	
359	0	2053	2050	2060	2046	
360	0	2054	2048	2059	2045	
361	0	2057	2049	2051	2056	
362	0	2057	2049	2050	2053	
363	0	2050	2044	2041	2052	
364	0	2053	2048	2053	2047	
365	0	2052	2046	2046	2042	
366	0	2050	2050	2048	2038	
367	0	2048	2050	2047	2038	
368	0	2046	2045	2048	2045	
369	0	2045	2048	2048	2047	
370	0	2046	2045	2042	2048	
371	0	2046	2046	2052	2047	
372	0	2051	2049	2051	2043	
373	0	2050	2053	2052	2048	
374	0	2047	2046	2052	2047	
375	0	2050	2052	2040	2042	
376	0	2046	2054	2049	2042	
377	0	2044	2046	2044	2045	
378	0	2050	2051	2051	2055	
379	0	2053	2055	2058	2058	
380	0	2056	2052	2047	2052	
381	0	2052	2049	2050	2054	
382	0	2051	2044	2039	2051	
383	0	2054	2053	2050	2052	
384	0	2053	2061	2046	2050	
385	0	2053	2052	2048	2051	
386	0	2046	2054	2045	2041	
387	0	2048	2056	2037	2039	
388	0	2049	2054	2043	2048	
389	0	2044	2055	2042	2053	
390	0	2046	2051	2046	2044	
391	0	2045	2051	2048	2036	
392	0	2043	2048	2038	2050	
393	0	2045	2051	2047	2057	
394	0	2046	2050	2046	2049	
395	0	2046	2051	2052	2042	
396	0	2049	2051	2056	2040	
397	0	2052	2051	2041	2054	
398	0	2049	2052	2051	2051	
399	0	2053	2056	2045	2045	
400	0	2053	2054	2050	2042	
401	0	2053	2056	2054	2049	
402	0	2050	2056	2048	2056	
403	0	2051	2052	2047	2049	
404	0	2049	2056	2042	2041	
405	0	2051	2055	2052	2039	
406	0	2052	2052	2053	2047	
407	0	2051	2049	2054	2052	
408	0	2047	2048	2046	2053	
409	0	2041	2047	2046	2044	
410	0	2043	2050	2051	2036	
411	0	2045	2052	2046	2045	
412	0	2043	2051	2046	2050	
413	0	2043	2047	2049	2050	
414	0	2044	2051	2040	2038	
415	0	2050	2049	2036	2037	
416	0	2053	2050	2046	2048	
417	0	2053	2050	2051	2052	
418	0	2050	2045	2050	2047	
419	0	2056	2051	2054	2045	
420	0	2057	2047	2054	2047	
421	0	2055	2049	2058	2048	
422	0	2058	2046	2044	2060	
423	0	2052	2048	2047	2056	
424	0	2053	2051	2041	2048	
425	0	2050	2053	2048	2048	
426	0	2045	2050	2047	2048	
427	0	2043	2041	2050	2061	
428	0	2045	2041	2046	2057	
429	0	2048	2059	2037	2038	
430	0	2054	2063	2051	2034	
431	0	2051	2057	2039	2039	
432	0	2046	2053	2044	2043	
433	0	2043	2045	2036	2055	
434	0	2042	2046	2047	2043	
435	0	2043	2040	2048	2036	
436	0	2050	2051	2050	2038	
437	0	2055	2054	2052	2045	
438	0	2052	2051	2049	2050	
439	0	2050	2046	2054	2058	
440	0	2051	2044	2046	2052	
441	0	2052	2050	2051	2043	
442	0	2057	2049	2048	2041	
443	0	2051	2050	2048	2039	
444	0	2049	2050	2038	2052	
445	0	2053	2049	2046	2048	
446	0	2050	2050	2041	2048	
447	0	2053	2052	2048	2043	
448	0	2050	2053	2043	2032	
449	0	2044	2053	2051	2041	
450	0	2046	2054	2047	2050	
451	0	2048	2052	2048	2052	
452	0	2047	2044	2047	2050	
453	0	2047	2047	2047	2043	
454	0	2048	2045	2050	2038	
455	0	2047	2046	2047	2046	
456	0	2048	2042	2046	2052	
457	0	2049	2040	2038	2052	
458	0	2050	2043	2050	2047	
459	0	2060	2053	2048	2042	
460	0	2057	2053	2055	2040	
461	0	2050	2044	2048	2049	
462	0	2050	2051	2048	2053	
463	0	2053	2055	2047	2050	
464	0	2048	2052	2052	2046	
465	0	2047	2049	2054	2042	
466	0	2053	2055	2050	2049	
467	0	2054	2055	2052	2054	
468	0	2049	2053	2046	2052	
469	0	2044	2045	2044	2047	
470	0	2048	2048	2048	2040	
471	0	2050	2046	2052	2044	
472	0	2046	2041	2050	2047	
473	0	2047	2046	2046	2053	
474	0	2050	2048	2040	2057	
475	0	2050	2050	2044	2055	
476	0	2047	2049	2037	2051	
477	0	2045	2048	2046	2052	
478	0	2051	2051	2043	2046	
479	0	2050	2051	2051	2046	
480	0	2054	2059	2049	2042	
481	0	2055	2059	2055	2042	
482	0	2047	2058	2052	2050	
483	0	2051	2060	2050	2049	
484	0	2055	2047	2049	2043	
485	0	2044	2033	2045	2041	
486	0	2048	2023	2049	2045	
487	0	2049	2039	2053	2044	
488	0	2050	2048	2052	2046	
489	0	2043	2043	2037	2052	
490	0	2047	2032	2048	2041	
491	0	2039	2036	2034	2030	
492	0	2042	2057	2045	2043	
493	0	2040	2054	2047	2050	
494	0	2046	2042	2051	2054	
495	0	2053	2054	2054	2060	
496	0	2060	2063	2054	2045	
497	0	2062	2066	2057	2037	
498	0	2061	2063	2056	2047	
499	0	2059	2063	2057	2040	
500	0	2057	2060	2047	2034	
501	0	2050	2054	2048	2045	
502	0	2052	2055	2054	2062	
503	0	2052	2049	2052	2058	
504	0	2050	2052	2053	2042	
505	0	2050	2051	2048	2040	
506	0	2050	2046	2052	2059	
507	0	2046	2041	2042	2051	
508	0	2040	2040	2044	2046	
509	0	2044	2038	2035	2039	
510	0	2050	2049	2046	2046	
511	0	2050	2047	2048	2057	
512	0	2040	2043	2049	2053	
513	0	2040	2038	2057	2045	
514	0	2036	2037	2047	2045	
515	0	2045	2045	2043	2059	
516	0	2055	2056	2048	2039	
517	0	2052	2057	2043	2051	
518	0	2052	2049	2051	2040	
519	0	2051	2047	2049	2062	
520	0	2053	2049	2053	2047	
521	0	2052	2051	2051	2040	
522	0	2060	2047	2057	2047	
523	0	2056	2048	2043	2058	
524	0	2049	2047	2047	2053	
525	0	2050	2041	2036	2045	
526	0	2051	2044	2047	2036	
527	0	2048	2048	2047	2038	
528	0	2044	2048	2048	2049	
529	0	2043	2049	2047	2049	
530	0	2047	2051	2047	2039	
531	0	2046	2047	2041	2037	
532	0	2044	2047	2034	2054	
533	0	2046	2056	2051	2050	
534	0	2048	2056	2044	2040	
535	0	2046	2054	2051	2040	
536	0	2046	2052	2050	2051	
537	0	2051	2051	2051	2056	
538	0	2058	2051	2054	2045	
539	0	2055	2055	2052	2039	
540	0	2054	2056	2050	2061	
541	0	2052	2054	2041	2049	
542	0	2053	2058	2054	2038	
543	0	2053	2051	2056	2060	
544	0	2050	2041	2053	2062	
545	0	2050	2047	2056	2050	
546	0	2049	2047	2054	2038	
547	0	2047	2044	2050	2052	
548	0	2046	2045	2044	2050	
549	0	2044	2048	2047	2042	
550	0	2046	2048	2041	2030	
551	0	2047	2042	2046	2048	
552	0	2045	2042	2036	2046	
553	0	2043	2043	2042	2041	
554	0	2046	2041	2042	2042	
555	0	2050	2043	2049	2053	
556	0	2048	2045	2051	2043	
557	0	2047	2045	2052	2044	
558	0	2049	2048	2050	2058	
559	0	2054	2052	2044	2058	
560	0	2052	2050	2053	2052	
561	0	2056	2054	2038	2036	
562	0	2052	2057	2048	2044	
563	0	2053	2056	2040	2052	
564	0	2051	2057	2055	2049	
565	0	2053	2056	2055	2046	
566	0	2048	2052	2053	2045	
567	0	2046	2048	2053	2054	
568	0	2044	2050	2052	2050	
569	0	2044	2046	2044	2044	
570	0	2047	2044	2040	2042	
571	0	2045	2041	2044	2041	
572	0	2045	2043	2036	2054	
573	0	2046	2042	2047	2048	
574	0	2044	2045	2041	2039	
575	0	2049	2044	2049	2040	
576	0	2051	2047	2053	2050	
577	0	2053	2051	2048	2052	
578	0	2053	2047	2051	2054	
579	0	2053	2049	2050	2045	
580	0	2055	2050	2050	2047	
581	0	2054	2052	2044	2056	
582	0	2055	2051	2055	2052	
583	0	2054	2051	2057	2042	
584	0	2050	2054	2054	2055	
585	0	2052	2052	2052	2055	
586	0	2047	2054	2038	2042	
587	0	2046	2049	2046	2039	
588	0	2046	2046	2049	2051	
589	0	2043	2045	2045	2047	
590	0	2046	2047	2046	2036	
591	0	2043	2047	2032	2044	
592	0	2040	2043	2044	2054	
593	0	2046	2045	2049	2042	
594	0	2052	2052	2047	2040	
595	0	2051	2051	2044	2053	
596	0	2049	2046	2044	2054	
597	0	2055	2046	2057	2043	
598	0	2054	2052	2060	2057	
599	0	2054	2054	2057	2056	
600	0	2058	2052	2050	2044	
601	0	2056	2048	2044	2045	
602	0	2053	2049	2052	2059	
603	0	2051	2048	2053	2045	
604	0	2051	2049	2051	2040	
605	0	2049	2047	2048	2046	
606	0	2044	2046	2037	2049	
607	0	2045	2048	2049	2042	
608	0	2044	2050	2041	2042	
609	0	2044	2050	2047	2052	
610	0	2045	2050	2044	2052	
611	0	2046	2044	2049	2041	
612	0	2046	2032	2054	2041	
613	0	2050	2044	2046	2045	
614	0	2050	2051	2046	2048	
615	0	2046	2052	2036	2045	
616	0	2052	2053	2045	2038	
617	0	2051	2051	2035	2048	
618	0	2052	2052	2044	2054	
619	0	2056	2055	2042	2054	
620	0	2052	2053	2052	2053	
621	0	2056	2052	2050	2047	
622	0	2052	2052	2052	2041	
623	0	2054	2050	2052	2052	
624	0	2051	2046	2045	2054	
625	0	2049	2049	2046	2045	
626	0	2050	2043	2041	2041	
627	0	2051	2048	2050	2044	
628	0	2053	2048	2037	2047	
629	0	2042	2044	2045	2054	
630	0	2044	2050	2041	2051	
631	0	2045	2049	2048	2048	
632	0	2041	2052	2045	2046	
633	0	2043	2051	2051	2050	
634	0	2049	2052	2055	2050	
635	0	2052	2045	2053	2049	
636	0	2054	2045	2054	2044	
637	0	2049	2047	2041	2055	
638	0	2049	2046	2042	2059	
639	0	2054	2048	2045	2056	
640	0	2058	2051	2048	2046	
641	0	2057	2051	2043	2049	
642	0	2055	2053	2055	2051	
643	0	2054	2050	2049	2045	
644	0	2051	2050	2053	2038	
645	0	2048	2047	2057	2043	
646	0	2044	2046	2051	2053	
647	0	2047	2044	2047	2042	
648	0	2044	2045	2036	2038	
649	0	2051	2047	2036	2041	
650	0	2043	2043	2035	2051	
651	0	2046	2043	2045	2041	
652	0	2051	2044	2052	2032	
653	0	2048	2044	2052	2051	
654	0	2044	2042	2052	2054	
655	0	2041	2040	2048	2044	
656	0	2044	2044	2043	2038	
657	0	2047	2045	2037	2054	
658	0	2054	2048	2048	2052	
659	0	2053	2053	2049	2049	
660	0	2053	2051	2052	2048	
661	0	2054	2046	2051	2054	
662	0	2056	2047	2049	2060	
663	0	2051	2049	2049	2050	
664	0	2051	2051	2048	2041	
665	0	2049	2051	2045	2046	
666	0	2048	2054	2040	2049	
667	0	2046	2056	2049	2043	
668	0	2045	2053	2048	2036	
669	0	2041	2046	2052	2051	
670	0	2042	2046	2054	2060	
671	0	2047	2043	2049	2047	
672	0	2051	2042	2049	2045	
673	0	2045	2049	2037	2057	
674	0	2054	2048	2054	2050	
675	0	2051	2050	2054	2036	
676	0	2052	2056	2048	2047	
677	0	2049	2056	2049	2056	
678	0	2055	2051	2039	2051	
679	0	2054	2055	2052	2041	
680	0	2053	2053	2055	2047	
681	0	2053	2054	2049	2051	
682	0	2055	2053	2055	2046	
683	0	2055	2049	2055	2049	
684	0	2052	2046	2054	2043	
685	0	2052	2045	2054	2045	
686	0	2050	2046	2054	2052	
687	0	2048	2049	2044	2047	
688	0	2045	2050	2046	2037	
689	0	2043	2045	2038	2043	
690	0	2046	2046	2043	2053	
691	0	2046	2049	2034	2043	
692	0	2046	2048	2045	2040	
693	0	2050	2049	2038	2048	
694	0	2051	2049	2048	2055	
695	0	2050	2051	2040	2046	
696	0	2053	2049	2056	2044	
697	0	2051	2052	2049	2055	
698	0	2050	2050	2049	2055	
699	0	2052	2050	2054	2041	
700	0	2052	2049	2046	2041	
701	0	2050	2046	2040	2055	
702	0	2049	2047	2038	2051	
703	0	2051	2053	2047	2052	
704	0	2051	2050	2043	2041	
705	0	2049	2048	2044	2045	
706	0	2048	2050	2041	2057	
707	0	2048	2053	2049	2054	
708	0	2048	2051	2050	2047	
709	0	2045	2043	2049	2039	
710	0	2044	2041	2048	2035	
711	0	2042	2044	2055	2040	
712	0	2046	2048	2052	2045	
713	0	2049	2046	2051	2042	
714	0	2041	2042	2044	2045	
715	0	2046	2045	2035	2038	
716	0	2046	2048	2045	2045	
717	0	2055	2053	2049	2062	
718	0	2058	2054	2058	2059	
719	0	2058	2052	2059	2053	
720	0	2057	2050	2050	2042	
721	0	2059	2055	2045	2042	
722	0	2054	2054	2038	2048	
723	0	2053	2048	2049	2048	
724	0	2054	2047	2040	2037	
725	0	2043	2046	2048	2037	
726	0	2042	2049	2047	2050	
727	0	2046	2047	2031	2047	
728	0	2045	2047	2045	2044	
729	0	2043	2046	2054	2044	
730	0	2047	2045	2054	2055	
731	0	2046	2045	2052	2050	
732	0	2048	2043	2043	2045	
733	0	2047	2043	2051	2040	
734	0	2046	2045	2050	2055	
735	0	2050	2044	2055	2054	
736	0	2052	2049	2059	2051	
737	0	2055	2054	2057	2043	
738	0	2058	2050	2048	2052	
739	0	2055	2051	2044	2059	
740	0	2053	2051	2046	2063	
741	0	2052	2050	2042	2059	
742	0	2052	2052	2055	2051	
743	0	2052	2054	2060	2050	
744	0	2052	2049	2064	2060	
745	0	2050	2051	2060	2064	
746	0	2047	2052	2052	2060	
747	0	2048	2052	2048	2042	
748	0	2044	2043	2041	2038	
749	0	2044	2045	2046	2053	
750	0	2045	2048	2045	2046	
751	0	2042	2047	2050	2047	
752	0	2050	2046	2051	2039	
753	0	2046	2045	2047	2042	
754	0	2047	2046	2053	2044	
755	0	2049	2048	2050	2045	
756	0	2049	2048	2054	2041	
757	0	2050	2048	2037	2030	
758	0	2053	2050	2038	2033	
759	0	2054	2053	2031	2047	
760	0	2055	2058	2036	2043	
761	0	2050	2060	2036	2026	
762	0	2047	2058	2040	2039	
763	0	2047	2054	2035	2043	
764	0	2042	2053	2025	2044	
765	0	2044	2049	2040	2034	
766	0	2044	2047	2041	2037	
767	0	2039	2042	2048	2053	
768	0	2039	2044	2048	2049	
769	0	2044	2054	2043	2046	
770	0	2047	2054	2043	2037	
771	0	2046	2055	2039	2043	
772	0	2047	2049	2039	2054	
773	0	2045	2045	2032	2054	
774	0	2048	2045	2044	2053	
775	0	2052	2048	2035	2051	
776	0	2057	2048	2050	2054	
777	0	2053	2048	2042	2053	
778	0	2054	2052	2054	2058	
779	0	2057	2053	2048	2062	
780	0	2056	2053	2053	2061	
781	0	2052	2051	2051	2061	
782	0	2053	2042	2051	2057	
783	0	2052	2043	2048	2048	
784	0	2053	2045	2053	2047	
785	0	2048	2044	2043	2046	
786	0	2050	2048	2048	2052	
787	0	2050	2042	2045	2046	
788	0	2047	2042	2048	2041	
789	0	2043	2050	2036	2036	
790	0	2047	2051	2046	2036	
791	0	2042	2045	2047	2051	
792	0	2044	2045	2051	2050	
793	0	2049	2048	2052	2039	
794	0	2053	2049	2040	2032	
795	0	2048	2050	2053	2044	
796	0	2055	2054	2049	2047	
797	0	2058	2061	2058	2055	
798	0	2055	2064	2057	2061	
799	0	2056	2057	2057	2054	
800	0	2054	2044	2056	2047	
801	0	2044	2031	2054	2052	
802	0	2043	2027	2054	2062	
803	0	2044	2035	2042	2057	
804	0	2058	2052	2058	2043	
805	0	2059	2054	2057	2045	
806	0	2054	2056	2049	2050	
807	0	2056	2055	2050	2045	
808	0	2048	2051	2049	2033	
809	0	2046	2049	2046	2041	
810	0	2045	2044	2045	2053	
811	0	2044	2039	2044	2042	
812	0	2051	2044	2048	2036	
813	0	2051	2045	2044	2053	
814	0	2053	2049	2050	2046	
815	0	2051	2048	2042	2038	
816	0	2052	2048	2048	2038	
817	0	2052	2052	2040	2050	
818	0	2050	2054	2047	2050	
819	0	2047	2051	2049	2045	
820	0	2051	2050	2055	2047	
821	0	2048	2044	2045	2054	
822	0	2046	2049	2055	2049	
823	0	2049	2049	2050	2050	
824	0	2048	2046	2049	2058	
825	0	2050	2056	2033	2047	
826	0	2052	2053	2045	2053	
827	0	2055	2054	2051	2056	
828	0	2054	2059	2053	2034	
829	0	2044	2041	2049	2048	
830	0	2039	2037	2049	2053	
831	0	2038	2025	2048	2046	
832	0	2042	2032	2049	2048	
833	0	2047	2049	2040	2037	
834	0	2053	2053	2050	2048	
835	0	2050	2052	2052	2040	
836	0	2049	2051	2058	2039	
837	0	2047	2045	2042	2058	
838	0	2053	2045	2055	2044	
839	0	2065	2057	2058	2055	
840	0	2055	2050	2041	2050	
841	0	2050	2041	2056	2057	
842	0	2053	2048	2058	2046	
843	0	2053	2059	2056	2044	
844	0	2055	2048	2042	2054	
845	0	2059	2054	2050	2038	
846	0	2052	2054	2044	2050	
847	0	2040	2048	2038	2042	
848	0	2043	2051	2038	2034	
849	0	2045	2050	2040	2041	
850	0	2043	2049	2046	2044	
851	0	2041	2051	2047	2032	
852	0	2046	2051	2053	2036	
853	0	2053	2054	2058	2048	
854	0	2051	2053	2052	2049	
855	0	2050	2054	2052	2049	
856	0	2051	2045	2045	2058	
857	0	2052	2053	2051	2055	
858	0	2055	2050	2042	2061	
859	0	2052	2052	2049	2058	
860	0	2054	2047	2053	2049	
861	0	2054	2047	2062	2059	
862	0	2048	2046	2056	2056	
863	0	2049	2049	2057	2047	
864	0	2056	2051	2056	2039	
865	0	2052	2048	2044	2043	
866	0	2049	2047	2044	2055	
867	0	2046	2048	2037	2046	
868	0	2046	2045	2043	2038	
869	0	2046	2043	2041	2032	
870	0	2049	2047	2046	2047	
871	0	2044	2039	2036	2046	
872	0	2044	2044	2050	2045	
873	0	2043	2048	2044	2038	
874	0	2046	2052	2042	2037	
875	0	2048	2051	2043	2047	
876	0	2049	2050	2039	2054	
877	0	2051	2046	2049	2055	
878	0	2051	2046	2039	2045	
879	0	2057	2052	2051	2046	
880	0	2053	2055	2045	2057	
881	0	2050	2052	2063	2052	
882	0	2052	2055	2058	2053	
883	0	2049	2054	2057	2043	
884	0	2052	2054	2053	2039	
885	0	2051	2051	2056	2044	
886	0	2050	2047	2053	2047	
887	0	2053	2044	2041	2051	
888	0	2049	2044	2047	2057	
889	0	2047	2046	2037	2035	
890	0	2048	2044	2047	2038	
891	0	2046	2048	2043	2046	
892	0	2044	2042	2044	2050	
893	0	2045	2042	2045	2049	
894	0	2046	2047	2036	2048	
895	0	2044	2051	2050	2042	
896	0	2045	2051	2049	2041	
897	0	2048	2056	2048	2051	
898	0	2055	2059	2054	2058	
899	0	2054	2054	2044	2061	
900	0	2055	2048	2050	2053	
901	0	2055	2048	2046	2046	
902	0	2053	2047	2057	2040	
903	0	2048	2047	2056	2041	
904	0	2047	2044	2046	2057	
905	0	2050	2044	2050	2053	
906	0	2044	2045	2036	2039	
907	0	2041	2041	2044	2041	
908	0	2042	2041	2043	2054	
909	0	2040	2045	2047	2060	
910	0	2049	2050	2048	2049	
911	0	2052	2058	2052	2040	
912	0	2052	2052	2054	2036	
913	0	2051	2055	2049	2038	
914	0	2048	2051	2053	2051	
915	0	2052	2051	2040	2054	
916	0	2052	2052	2052	2050	
917	0	2051	2050	2044	2046	
918	0	2053	2048	2062	2046	
919	0	2051	2046	2057	2053	
920	0	2053	2050	2043	2054	
921	0	2053	2052	2049	2051	
922	0	2056	2055	2054	2047	
923	0	2056	2048	2054	2051	
924	0	2050	2046	2043	2045	
925	0	2045	2046	2035	2049	
926	0	2047	2048	2039	2056	
927	0	2047	2048	2031	2050	
928	0	2045	2053	2041	2044	
929	0	2046	2048	2044	2035	
930	0	2048	2050	2051	2039	
931	0	2048	2051	2057	2047	
932	0	2050	2050	2052	2049	
933	0	2054	2050	2052	2043	
934	0	2046	2053	2055	2043	
935	0	2047	2054	2054	2054	
936	0	2047	2054	2048	2055	
937	0	2049	2053	2054	2047	
938	0	2049	2052	2037	2036	
939	0	2057	2060	2051	2043	
940	0	2060	2063	2042	2054	
941	0	2058	2056	2048	2047	
942	0	2055	2049	2047	2040	
943	0	2050	2036	2046	2050	
944	0	2049	2036	2039	2059	
945	0	2043	2043	2048	2052	
946	0	2044	2044	2040	2041	
947	0	2048	2046	2051	2039	
948	0	2046	2049	2041	2046	
949	0	2044	2049	2042	2047	
950	0	2043	2047	2037	2042	
951	0	2046	2049	2045	2029	
952	0	2044	2048	2033	2052	
953	0	2044	2047	2040	2052	
954	0	2047	2042	2047	2051	
955	0	2048	2043	2054	2052	
956	0	2050	2047	2055	2051	
957	0	2050	2048	2050	2055	
958	0	2052	2046	2058	2060	
959	0	2057	2052	2043	2061	
960	0	2057	2051	2050	2058	
961	0	2060	2053	2052	2045	
962	0	2056	2048	2052	2051	
963	0	2054	2050	2048	2056	
964	0	2054	2049	2047	2053	
965	0	2050	2054	2046	2047	
966	0	2054	2059	2052	2036	
967	0	2048	2052	2049	2043	
968	0	2040	2045	2043	2052	
969	0	2040	2053	2040	2050	
970	0	2042	2053	2038	2045	
971	0	2040	2050	2041	2041	
972	0	2047	2051	2039	2036	
973	0	2051	2051	2043	2045	
974	0	2052	2053	2044	2047	
975	0	2052	2048	2053	2045	
976	0	2050	2049	2055	2040	
977	0	2048	2046	2055	2042	
978	0	2052	2052	2056	2054	
979	0	2052	2041	2058	2053	
980	0	2048	2024	2053	2054	
981	0	2049	2034	2042	2046	
982	0	2054	2046	2051	2053	
983	0	2056	2051	2051	2046	
984	0	2056	2054	2045	2051	
985	0	2052	2053	2044	2050	
986	0	2048	2050	2036	2042	
987	0	2040	2048	2041	2032	
988	0	2043	2047	2035	2037	
989	0	2042	2048	2052	2048	
990	0	2045	2050	2052	2043	
991	0	2044	2051	2054	2044	
992	0	2043	2049	2055	2043	
993	0	2047	2051	2044	2051	
994	0	2049	2054	2050	2042	
995	0	2051	2057	2032	2037	
996	0	2052	2056	2035	2042	
997	0	2052	2054	2045	2052	
998	0	2058	2050	2054	2058	
999	0	2054	2050	2051	2056	
1000	0	2054	2047	2050	2052	
1001	0	2052	2047	2059	2046	
1002	0	2049	2051	2044	2056	
1003	0	2050	2046	2050	2053	
1004	0	2052	2046	2047	2045	
1005	0	2052	2047	2056	2040	
1006	0	2050	2048	2056	2043	
1007	0	2047	2049	2044	2052	
1008	0	2047	2045	2048	2050	
1009	0	2045	2048	2037	2044	
1010	0	2046	2044	2046	2038	
1011	0	2044	2042	2045	2042	
1012	0	2047	2049	2047	2049	
1013	0	2047	2047	2049	2046	
1014	0	2051	2047	2052	2043	
1015	0	2046	2049	2048	2046	
1016	0	2048	2050	2043	2057	
1017	0	2049	2051	2050	2054	
1018	0	2052	2054	2037	2056	
1019	0	2054	2052	2049	2045	
1020	0	2052	2056	2053	2044	
1021	0	2055	2051	2054	2054	
1022	0	2052	2048	2046	2052	
1023	0	2052	2049	2054	2054	
1024	0	2052	2047	2051	2049	
1025	0	2049	2044	2044	2040	
1026	0	2051	2043	2035	2036	
1027	0	2049	2051	2044	2039	
1028	0	2045	2049	2046	2048	
1029	0	2045	2046	2053	2048	
1030	0	2044	2048	2054	2043	
1031	0	2047	2053	2052	2039	
1032	0	2046	2049	2051	2043	
1033	0	2048	2046	2044	2055	
1034	0	2051	2043	2044	2050	
1035	0	2048	2045	2036	2053	
1036	0	2050	2049	2047	2046	
1037	0	2048	2050	2047	2046	
1038	0	2048	2046	2042	2047	
1039	0	2052	2048	2049	2056	
1040	0	2054	2049	2052	2053	
1041	0	2056	2053	2059	2048	
1042	0	2058	2048	2056	2044	
1043	0	2052	2047	2041	2040	
1044	0	2050	2052	2046	2048	
1045	0	2048	2053	2055	2046	
1046	0	2050	2052	2040	2055	
1047	0	2043	2054	2045	2047	
1048	0	2046	2050	2036	2040	
1049	0	2044	2053	2043	2039	
1050	0	2045	2046	2034	2053	
1051	0	2044	2052	2047	2052	
1052	0	2045	2047	2045	2046	
1053	0	2043	2051	2049	2045	
1054	0	2046	2054	2050	2052	
1055	0	2053	2056	2053	2053	
1056	0	2055	2052	2049	2044	
1057	0	2054	2054	2048	2044	
1058	0	2054	2050	2051	2056	
1059	0	2053	2049	2044	2052	
1060	0	2054	2054	2047	2045	
1061	0	2053	2047	2041	2039	
1062	0	2055	2048	2049	2055	
1063	0	2051	2045	2050	2056	
1064	0	2052	2045	2049	2048	
1065	0	2050	2042	2057	2038	
1066	0	2048	2045	2052	2042	
1067	0	2040	2041	2053	2049	
1068	0	2041	2043	2042	2049	
1069	0	2044	2051	2044	2043	
1070	0	2047	2049	2038	2039	
1071	0	2048	2045	2044	2039	
1072	0	2051	2054	2044	2045	
1073	0	2051	2054	2040	2053	
1074	0	2050	2053	2049	2050	
1075	0	2052	2055	2045	2054	
1076	0	2053	2057	2052	2048	
1077	0	2058	2053	2057	2039	
1078	0	2055	2049	2047	2042	
1079	0	2055	2048	2051	2053	
1080	0	2053	2049	2046	2057	
1081	0	2048	2048	2052	2051	
1082	0	2048	2046	2050	2057	
1083	0	2046	2048	2052	2046	
1084	0	2046	2048	2053	2040	
1085	0	2052	2051	2041	2058	
1086	0	2054	2050	2046	2058	
1087	0	2052	2053	2040	2049	
1088	0	2047	2054	2051	2040	
1089	0	2046	2046	2052	2047	
1090	0	2043	2042	2051	2054	
1091	0	2049	2044	2049	2050	
1092	0	2045	2043	2038	2046	
1093	0	2043	2046	2050	2038	
1094	0	2049	2046	2044	2039	
1095	0	2049	2046	2055	2051	
1096	0	2051	2048	2053	2048	
1097	0	2050	2049	2045	2045	
1098	0	2054	2046	2049	2043	
1099	0	2054	2041	2044	2052	
1100	0	2052	2049	2049	2060	
1101	0	2056	2048	2044	2053	
1102	0	2052	2052	2055	2045	
1103	0	2054	2054	2057	2041	
1104	0	2053	2052	2054	2043	
1105	0	2048	2054	2051	2053	
1106	0	2050	2055	2038	2046	
1107	0	2047	2054	2041	2038	
1108	0	2042	2050	2048	2037	
1109	0	2042	2043	2051	2040	
1110	0	2044	2040	2045	2049	
1111	0	2041	2040	2028	2054	
1112	0	2043	2042	2038	2057	
1113	0	2048	2043	2047	2051	
1114	0	2050	2048	2053	2045	
1115	0	2048	2047	2054	2039	
1116	0	2052	2047	2045	2045	
1117	0	2056	2050	2053	2061	
1118	0	2055	2057	2048	2051	
1119	0	2058	2055	2056	2044	
1120	0	2059	2058	2053	2046	
1121	0	2057	2057	2059	2057	
1122	0	2053	2056	2054	2055	
1123	0	2049	2050	2040	2052	
1124	0	2051	2049	2050	2044	
1125	0	2045	2052	2043	2034	
1126	0	2044	2049	2044	2042	
1127	0	2042	2052	2041	2050	
1128	0	2043	2051	2045	2050	
1129	0	2046	2049	2036	2041	
1130	0	2048	2050	2041	2043	
1131	0	2048	2049	2039	2055	
1132	0	2047	2050	2047	2049	
1133	0	2047	2049	2051	2042	
1134	0	2052	2048	2058	2042	
1135	0	2053	2047	2060	2053	
1136	0	2051	2044	2043	2049	
1137	0	2051	2047	2043	2042	
1138	0	2052	2048	2044	2039	
1139	0	2050	2049	2055	2053	
1140	0	2052	2050	2052	2051	
1141	0	2054	2053	2052	2042	
1142	0	2054	2047	2049	2042	
1143	0	2048	2050	2054	2052	
1144	0	2045	2054	2052	2055	
1145	0	2045	2052	2045	2044	
1146	0	2045	2046	2035	2058	
1147	0	2048	2042	2044	2054	
1148	0	2049	2044	2040	2057	
1149	0	2046	2046	2042	2046	
1150	0	2045	2052	2038	2036	
1151	0	2044	2052	2046	2053	
1152	0	2047	2048	2046	2051	
1153	0	2049	2055	2053	2045	
1154	0	2052	2053	2055	2037	
1155	0	2053	2055	2061	2038	
1156	0	2050	2053	2056	2046	
1157	0	2051	2053	2056	2042	
1158	0	2055	2054	2053	2037	
1159	0	2051	2054	2046	2048	
1160	0	2058	2055	2052	2057	
1161	0	2052	2054	2039	2055	
1162	0	2054	2057	2046	2045	
1163	0	2053	2049	2041	2043	
1164	0	2049	2044	2052	2048	
1165	0	2046	2043	2048	2054	
1166	0	2046	2045	2045	2055	
1167	0	2047	2047	2045	2047	
1168	0	2044	2047	2040	2037	
1169	0	2045	2045	2048	2038	
1170	0	2044	2049	2050	2047	
1171	0	2046	2048	2054	2053	
1172	0	2048	2050	2048	2045	
1173	0	2045	2050	2044	2039	
1174	0	2047	2050	2050	2042	
1175	0	2054	2048	2041	2054	
1176	0	2053	2047	2050	2052	
1177	0	2053	2048	2056	2047	
1178	0	2056	2047	2061	2042	
1179	0	2054	2050	2055	2043	
1180	0	2054	2051	2049	2056	
1181	0	2052	2049	2046	2048	
1182	0	2054	2052	2043	2043	
1183	0	2051	2048	2049	2044	
1184	0	2049	2047	2038	2057	
1185	0	2048	2048	2048	2055	
1186	0	2047	2051	2048	2051	
1187	0	2046	2048	2049	2047	
1188	0	2046	2049	2044	2043	
1189	0	2043	2048	2041	2050	
1190	0	2046	2043	2048	2049	
1191	0	2047	2043	2039	2043	
1192	0	2046	2042	2045	2041	
1193	0	2047	2049	2044	2037	
1194	0	2048	2049	2056	2042	
1195	0	2049	2050	2052	2052	
1196	0	2052	2051	2048	2053	
1197	0	2055	2049	2051	2053	
1198	0	2058	2051	2052	2052	
1199	0	2051	2046	2055	2055	
1200	0	2052	2047	2047	2039	
1201	0	2055	2058	2047	2049	
1202	0	2053	2053	2040	2057	
1203	0	2052	2052	2049	2042	
1204	0	2049	2058	2047	2052	
1205	0	2048	2050	2054	2046	
1206	0	2048	2050	2044	2044	
1207	0	2050	2047	2046	2055	
1208	0	2040	2044	2042	2038	
1209	0	2044	2046	2048	2041	
1210	0	2043	2041	2040	2053	
1211	0	2042	2048	2047	2039	
1212	0	2044	2052	2044	2050	
1213	0	2045	2047	2047	2048	
1214	0	2048	2054	2034	2041	
1215	0	2043	2051	2053	2054	
1216	0	2046	2046	2050	2039	
1217	0	2055	2055	2060	2054	
1218	0	2057	2048	2048	2059	
1219	0	2056	2046	2060	2044	
1220	0	2052	2050	2059	2055	
1221	0	2049	2048	2050	2056	
1222	0	2049	2055	2043	2043	
1223	0	2052	2051	2046	2050	
1224	0	2055	2049	2050	2052	
1225	0	2058	2049	2044	2036	
1226	0	2053	2049	2049	2047	
1227	0	2050	2052	2035	2055	
1228	0	2044	2045	2032	2040	
1229	0	2045	2050	2046	2040	
1230	0	2046	2048	2053	2043	
1231	0	2049	2047	2053	2048	
1232	0	2047	2052	2048	2049	
1233	0	2045	2052	2051	2039	
1234	0	2050	2055	2037	2044	
1235	0	2052	2053	2046	2058	
1236	0	2046	2052	2039	2053	
1237	0	2051	2051	2050	2043	
1238	0	2050	2055	2046	2047	
1239	0	2051	2056	2052	2057	
1240	0	2050	2050	2051	2052	
1241	0	2052	2047	2051	2048	
1242	0	2054	2047	2052	2042	
1243	0	2056	2048	2053	2043	
1244	0	2047	2046	2055	2060	
1245	0	2048	2045	2053	2051	
1246	0	2051	2048	2042	2038	
1247	0	2048	2050	2048	2038	
1248	0	2042	2051	2035	2041	
1249	0	2047	2049	2050	2051	
1250	0	2046	2049	2046	2050	
1251	0	2045	2055	2050	2044	
1252	0	2049	2049	2046	2042	
1253	0	2052	2048	2040	2040	
1254	0	2050	2046	2047	2050	
1255	0	2047	2047	2040	2046	
1256	0	2048	2043	2047	2044	
1257	0	2048	2043	2047	2052	
1258	0	2050	2042	2051	2056	
1259	0	2050	2048	2054	2046	
1260	0	2053	2050	2046	2046	
1261	0	2053	2050	2054	2047	
1262	0	2055	2048	2054	2048	
1263	0	2056	2050	2052	2052	
1264	0	2052	2050	2052	2051	
1265	0	2051	2046	2040	2041	
1266	0	2048	2050	2046	2042	
1267	0	2044	2048	2052	2056	
1268	0	2044	2050	2051	2053	
1269	0	2047	2048	2048	2042	
1270	0	2045	2052	2036	2038	
1271	0	2047	2050	2041	2041	
1272	0	2045	2045	2045	2054	
1273	0	2050	2053	2046	2051	
1274	0	2052	2049	2043	2042	
1275	0	2051	2053	2047	2045	
1276	0	2048	2050	2051	2052	
1277	0	2052	2049	2053	2050	
1278	0	2055	2048	2052	2044	
1279	0	2054	2044	2047	2039	
1280	0	2056	2045	2058	2050	
1281	0	2053	2048	2055	2055	
1282	0	2053	2049	2040	2052	
1283	0	2052	2052	2052	2051	
1284	0	2049	2056	2055	2050	
1285	0	2050	2055	2051	2052	
1286	0	2051	2056	2054	2044	
1287	0	2044	2050	2042	2040	
1288	0	2041	2044	2048	2039	
1289	0	2042	2043	2044	2042	
1290	0	2045	2045	2049	2050	
1291	0	2047	2046	2043	2049	
1292	0	2045	2049	2037	2054	
1293	0	2048	2047	2041	2052	
1294	0	2048	2044	2054	2042	
1295	0	2051	2045	2049	2054	
1296	0	2050	2048	2046	2054	
1297	0	2050	2045	2057	2046	
1298	0	2055	2052	2042	2053	
1299	0	2052	2050	2046	2058	
1300	0	2052	2057	2059	2040	
1301	0	2047	2056	2051	2049	
1302	0	2050	2050	2051	2055	
1303	0	2050	2052	2050	2039	
1304	0	2052	2044	2043	2051	
1305	0	2050	2054	2049	2044	
1306	0	2054	2046	2047	2040	
1307	0	2046	2048	2051	2050	
1308	0	2046	2046	2035	2044	
1309	0	2044	2044	2045	2040	
1310	0	2042	2048	2042	2054	
1311	0	2041	2041	2044	2037	
1312	0	2048	2049	2047	2055	
1313	0	2049	2049	2038	2056	
1314	0	2052	2050	2054	2041	
1315	0	2053	2056	2052	2045	
1316	0	2050	2051	2054	2050	
1317	0	2050	2055	2044	2041	
1318	0	2053	2049	2045	2051	
1319	0	2052	2057	2049	2059	
1320	0	2054	2049	2051	2047	
1321	0	2057	2052	2047	2056	
1322	0	2055	2050	2057	2055	
1323	0	2053	2045	2043	2042	
1324	0	2048	2045	2050	2053	
1325	0	2047	2045	2042	2055	
1326	0	2047	2048	2048	2046	
1327	0	2048	2046	2050	2040	
1328	0	2044	2047	2056	2033	
1329	0	2052	2044	2047	2045	
1330	0	2046	2046	2043	2045	
1331	0	2048	2048	2047	2045	
1332	0	2046	2046	2037	2039	
1333	0	2048	2045	2047	2043	
1334	0	2047	2045	2037	2056	
1335	0	2051	2046	2049	2055	
1336	0	2052	2048	2044	2056	
1337	0	2052	2051	2040	2048	
1338	0	2049	2050	2050	2046	
1339	0	2052	2045	2054	2050	
1340	0	2048	2047	2055	2054	
1341	0	2050	2051	2056	2057	
1342	0	2052	2046	2047	2056	
1343	0	2053	2049	2054	2045	
1344	0	2051	2049	2057	2041	
1345	0	2051	2053	2048	2042	
1346	0	2047	2052	2050	2048	
1347	0	2042	2048	2035	2052	
1348	0	2045	2046	2047	2056	
1349	0	2047	2048	2045	2047	
1350	0	2044	2048	2040	2046	
1351	0	2046	2047	2038	2047	
1352	0	2045	2051	2044	2042	
1353	0	2051	2054	2045	2039	
1354	0	2050	2049	2050	2038	
1355	0	2051	2051	2050	2048	
1356	0	2057	2047	2047	2040	
1357	0	2057	2054	2058	2051	
1358	0	2055	2053	2053	2045	
1359	0	2056	2049	2055	2048	
1360	0	2052	2050	2041	2057	
1361	0	2051	2049	2046	2055	
1362	0	2048	2051	2052	2045	
1363	0	2050	2051	2044	2057	
1364	0	2051	2047	2044	2047	
1365	0	2046	2052	2040	2046	
1366	0	2045	2043	2040	2056	
1367	0	2047	2045	2047	2039	
1368	0	2046	2047	2050	2051	
1369	0	2044	2045	2039	2039	
1370	0	2042	2040	2048	2047	
1371	0	2047	2041	2046	2043	
1372	0	2045	2040	2050	2038	
1373	0	2047	2049	2043	2036	
1374	0	2049	2050	2053	2037	
1375	0	2054	2054	2049	2043	
1376	0	2051	2053	2040	2056	
1377	0	2052	2049	2053	2058	
1378	0	2052	2048	2056	2056	
1379	0	2056	2045	2042	2056	
1380	0	2053	2050	2049	2050	
1381	0	2052	2053	2052	2045	
1382	0	2055	2053	2048	2045	
1383	0	2053	2053	2048	2041	
1384	0	2050	2051	2055	2047	
1385	0	2046	2047	2054	2048	
1386	0	2045	2047	2051	2053	
1387	0	2046	2044	2043	2051	
1388	0	2046	2045	2049	2041	
1389	0	2041	2042	2041	2036	
1390	0	2048	2044	2049	2036	
1391	0	2048	2048	2046	2044	
1392	0	2047	2051	2037	2046	
1393	0	2046	2050	2044	2049	
1394	0	2046	2054	2050	2048	
1395	0	2051	2056	2050	2046	
1396	0	2055	2054	2051	2044	
1397	0	2056	2051	2039	2041	
1398	0	2057	2050	2050	2039	
1399	0	2053	2051	2049	2046	
1400	0	2047	2046	2048	2056	
1401	0	2042	2047	2049	2060	
1402	0	2046	2044	2039	2055	
1403	0	2054	2043	2045	2049	
1404	0	2058	2049	2051	2046	
1405	0	2053	2047	2057	2044	
1406	0	2050	2051	2056	2040	
1407	0	2048	2054	2037	2048	
1408	0	2044	2049	2047	2053	
1409	0	2045	2049	2052	2051	
1410	0	2043	2044	2040	2049	
1411	0	2044	2044	2047	2048	
1412	0	2044	2043	2049	2042	
1413	0	2043	2048	2054	2038	
1414	0	2045	2044	2054	2043	
1415	0	2045	2042	2051	2059	
1416	0	2049	2049	2049	2055	
1417	0	2054	2051	2043	2045	
1418	0	2055	2051	2052	2056	
1419	0	2053	2053	2052	2045	
1420	0	2053	2052	2057	2054	
1421	0	2055	2054	2046	2052	
1422	0	2059	2053	2050	2045	
1423	0	2054	2049	2054	2052	
1424	0	2054	2051	2047	2044	
1425	0	2053	2045	2057	2040	
1426	0	2050	2053	2045	2052	
1427	0	2042	2048	2040	2038	
1428	0	2042	2047	2042	2048	
1429	0	2042	2043	2034	2051	
1430	0	2042	2042	2041	2042	
1431	0	2042	2048	2028	2053	
1432	0	2043	2042	2043	2041	
1433	0	2045	2049	2042	2046	
1434	0	2048	2047	2044	2048	
1435	0	2054	2049	2052	2031	
1436	0	2056	2051	2042	2049	
1437	0	2058	2050	2056	2045	
1438	0	2052	2058	2058	2052	
1439	0	2053	2047	2056	2054	
1440	0	2054	2047	2063	2042	
1441	0	2054	2050	2052	2045	
1442	0	2050	2048	2045	2055	
1443	0	2047	2048	2056	2051	
1444	0	2049	2042	2052	2049	
1445	0	2048	2051	2049	2058	
1446	0	2050	2047	2044	2042	
1447	0	2046	2049	2035	2043	
1448	0	2044	2046	2046	2058	
1449	0	2043	2049	2050	2042	
1450	0	2044	2054	2041	2039	
1451	0	2044	2043	2047	2051	
1452	0	2048	2056	2036	2039	
1453	0	2049	2049	2036	2043	
1454	0	2052	2052	2051	2046	
1455	0	2051	2050	2055	2036	
1456	0	2048	2048	2048	2041	
1457	0	2052	2048	2062	2057	
1458	0	2053	2047	2053	2047	
1459	0	2055	2048	2043	2043	
1460	0	2055	2048	2041	2054	
1461	0	2054	2050	2050	2051	
1462	0	2052	2049	2051	2048	
1463	0	2051	2052	2049	2060	
1464	0	2048	2046	2053	2046	
1465	0	2048	2046	2037	2050	
1466	0	2046	2046	2053	2059	
1467	0	2047	2045	2049	2048	
1468	0	2046	2045	2041	2044	
1469	0	2043	2044	2048	2054	
1470	0	2046	2046	2035	2045	
1471	0	2046	2042	2033	2033	
1472	0	2046	2049	2046	2045	
1473	0	2048	2046	2053	2046	
1474	0	2045	2052	2047	2038	
1475	0	2049	2046	2049	2045	
1476	0	2049	2052	2046	2054	
1477	0	2053	2049	2043	2040	
1478	0	2052	2054	2045	2040	
1479	0	2056	2048	2052	2050	
1480	0	2059	2052	2054	2046	
1481	0	2051	2050	2055	2039	
1482	0	2051	2048	2042	2043	
1483	0	2046	2042	2049	2057	
1484	0	2049	2046	2041	2052	
1485	0	2049	2049	2056	2050	
1486	0	2051	2048	2041	2042	
1487	0	2046	2046	2039	2050	
1488	0	2047	2045	2034	2056	
1489	0	2046	2046	2038	2052	
1490	0	2045	2043	2038	2038	
1491	0	2045	2042	2045	2051	
1492	0	2049	2044	2047	2058	
1493	0	2047	2046	2053	2046	
1494	0	2047	2046	2056	2040	
1495	0	2050	2047	2059	2033	
1496	0	2046	2049	2048	2044	
1497	0	2052	2048	2045	2057	
1498	0	2051	2050	2050	2048	
1499	0	2052	2049	2042	2044	
1500	0	2056	2050	2052	2043	
1501	0	2057	2050	2056	2048	
1502	0	2054	2049	2057	2060	
1503	0	2052	2047	2053	2058	
1504	0	2049	2055	2047	2057	
1505	0	2050	2051	2049	2052	
1506	0	2051	2054	2052	2039	
1507	0	2047	2049	2050	2046	
1508	0	2045	2048	2051	2050	
1509	0	2039	2047	2046	2045	
1510	0	2042	2043	2046	2034	
1511	0	2044	2044	2039	2034	
1512	0	2046	2046	2049	2044	
1513	0	2048	2044	2050	2050	
1514	0	2049	2049	2047	2051	
1515	0	2052	2049	2048	2043	
1516	0	2052	2049	2049	2040	
1517	0	2054	2050	2050	2047	
1518	0	2051	2050	2042	2057	
1519	0	2051	2048	2053	2060	
1520	0	2052	2051	2051	2050	
1521	0	2052	2057	2048	2047	
1522	0	2054	2055	2048	2042	
1523	0	2052	2054	2049	2059	
1524	0	2052	2049	2049	2058	
1525	0	2049	2048	2042	2048	
1526	0	2048	2047	2053	2035	
1527	0	2045	2047	2051	2044	
1528	0	2046	2048	2043	2054	
1529	0	2046	2046	2047	2046	
1530	0	2046	2048	2041	2036	
1531	0	2046	2046	2046	2038	
1532	0	2046	2047	2049	2054	
1533	0	2042	2049	2051	2051	
1534	0	2046	2049	2055	2038	
1535	0	2044	2050	2048	2036	
1536	0	2050	2052	2048	2054	
1537	0	2053	2050	2043	2056	
1538	0	2054	2051	2050	2043	
1539	0	2057	2055	2044	2043	
1540	0	2058	2055	2054	2062	
1541	0	2058	2054	2052	2049	
1542	0	2052	2051	2056	2052	
1543	0	2052	2050	2044	2043	
1544	0	2051	2056	2053	2049	
1545	0	2047	2051	2051	2040	
1546	0	2044	2048	2045	2046	
1547	0	2042	2052	2048	2041	
1548	0	2047	2051	2040	2051	
1549	0	2046	2048	2043	2046	
1550	0	2048	2051	2037	2037	
1551	0	2047	2046	2049	2045	
1552	0	2042	2047	2051	2057	
1553	0	2045	2053	2043	2053	
1554	0	2044	2046	2040	2045	
1555	0	2057	2052	2040	2042	
1556	0	2054	2052	2048	2053	
1557	0	2055	2053	2043	2061	
1558	0	2053	2050	2050	2051	
1559	0	2052	2047	2053	2045	
1560	0	2057	2046	2053	2046	
1561	0	2053	2051	2049	2052	
1562	0	2050	2046	2047	2049	
1563	0	2052	2049	2053	2040	
1564	0	2050	2048	2051	2037	
1565	0	2049	2049	2053	2051	
1566	0	2050	2042	2057	2054	
1567	0	2048	2044	2051	2051	
1568	0	2048	2043	2050	2039	
1569	0	2045	2040	2041	2044	
1570	0	2047	2049	2046	2053	
1571	0	2047	2051	2034	2056	
1572	0	2042	2047	2046	2045	
1573	0	2044	2050	2043	2038	
1574	0	2048	2051	2053	2044	
1575	0	2044	2050	2052	2052	
1576	0	2049	2051	2048	2041	
1577	0	2051	2055	2048	2036	
1578	0	2054	2054	2045	2044	
1579	0	2052	2055	2048	2054	
1580	0	2052	2052	2044	2050	
1581	0	2051	2051	2054	2042	
1582	0	2051	2048	2048	2054	
1583	0	2056	2050	2050	2057	
1584	0	2052	2053	2041	2045	
1585	0	2053	2045	2030	2055	
1586	0	2053	2048	2042	2040	
1587	0	2048	2053	2046	2051	
1588	0	2049	2043	2046	2042	
1589	0	2046	2048	2052	2041	
1590	0	2048	2053	2044	2054	
1591	0	2046	2044	2040	2042	
1592	0	2045	2047	2051	2053	
1593	0	2045	2054	2052	2040	
1594	0	2049	2047	2048	2056	
1595	0	2049	2046	2054	2049	
1596	0	2053	2049	2046	2042	
1597	0	2052	2051	2038	2056	
1598	0	2055	2048	2054	2041	
1599	0	2053	2048	2056	2057	
1600	0	2051	2052	2049	2045	
1601	0	2050	2049	2052	2055	
1602	0	2053	2048	2042	2050	
1603	0	2052	2055	2050	2042	
1604	0	2051	2053	2044	2040	
1605	0	2050	2052	2037	2057	
1606	0	2044	2052	2048	2047	
1607	0	2044	2052	2041	2039	
1608	0	2040	2049	2043	2036	
1609	0	2043	2044	2054	2043	
1610	0	2047	2046	2052	2050	
1611	0	2051	2046	2055	2046	
1612	0	2044	2047	2052	2043	
1613	0	2045	2043	2045	2040	
1614	0	2044	2046	2042	2043	
1615	0	2051	2051	2052	2045	
1616	0	2051	2044	2049	2057	
1617	0	2050	2049	2051	2057	
1618	0	2056	2054	2045	2044	
1619	0	2053	2053	2049	2042	
1620	0	2054	2053	2049	2053	
1621	0	2054	2056	2044	2056	
1622	0	2052	2051	2043	2054	
1623	0	2054	2049	2048	2050	
1624	0	2046	2050	2046	2042	
1625	0	2045	2047	2046	2039	
1626	0	2046	2050	2040	2042	
1627	0	2047	2051	2045	2045	
1628	0	2045	2048	2039	2042	
1629	0	2051	2047	2052	2032	
1630	0	2050	2043	2042	2041	
1631	0	2050	2048	2056	2053	
1632	0	2048	2046	2051	2050	
1633	0	2047	2051	2052	2038	
1634	0	2050	2052	2053	2040	
1635	0	2049	2049	2057	2050	
1636	0	2051	2044	2052	2055	
1637	0	2052	2049	2057	2045	
1638	0	2056	2051	2058	2043	
1639	0	2059	2045	2055	2051	
1640	0	2058	2048	2057	2063	
1641	0	2054	2051	2046	2060	
1642	0	2057	2049	2052	2053	
1643	0	2054	2048	2056	2053	
1644	0	2051	2046	2052	2060	
1645	0	2050	2045	2047	2066	
1646	0	2052	2052	2049	2051	
1647	0	2055	2052	2056	2045	
1648	0	2047	2044	2047	2060	
1649	0	2047	2043	2049	2060	
1650	0	2045	2045	2058	2051	
1651	0	2044	2051	2053	2043	
1652	0	2045	2044	2049	2054	
1653	0	2047	2043	2050	2043	
1654	0	2047	2042	2053	2051	
1655	0	2052	2045	2054	2060	
1656	0	2048	2045	2048	2043	
1657	0	2051	2052	2049	2038	
1658	0	2054	2055	2049	2039	
1659	0	2048	2057	2053	2044	
1660	0	2049	2055	2038	2040	
1661	0	2046	2053	2038	2026	
1662	0	2044	2054	2037	2040	
1663	0	2045	2055	2034	2038	
1664	0	2044	2052	2033	2033	
1665	0	2043	2052	2025	2030	
1666	0	2044	2054	2029	2034	
1667	0	2043	2050	2023	2046	
1668	0	2039	2047	2038	2041	
1669	0	2035	2049	2037	2035	
1670	0	2038	2051	2040	2034	
1671	0	2039	2049	2045	2049	
1672	0	2042	2046	2042	2046	
1673	0	2048	2048	2040	2041	
1674	0	2050	2045	2039	2037	
1675	0	2052	2048	2048	2041	
1676	0	2050	2047	2038	2059	
1677	0	2058	2045	2056	2056	
1678	0	2059	2047	2063	2050	
1679	0	2056	2052	2057	2048	
1680	0	2058	2048	2058	2059	
1681	0	2057	2051	2058	2058	
1682	0	2056	2047	2054	2043	
1683	0	2053	2049	2045	2050	
1684	0	2052	2048	2054	2057	
1685	0	2047	2047	2046	2049	
1686	0	2052	2049	2053	2044	
1687	0	2045	2052	2050	2041	
1688	0	2044	2051	2050	2047	
1689	0	2041	2050	2054	2053	
1690	0	2045	2043	2054	2050	
1691	0	2046	2045	2048	2046	
1692	0	2047	2046	2056	2037	
1693	0	2046	2047	2050	2046	
1694	0	2052	2050	2055	2055	
1695	0	2051	2044	2050	2052	
1696	0	2054	2048	2059	2045	
1697	0	2058	2048	2055	2044	
1698	0	2054	2051	2054	2053	
1699	0	2047	2054	2047	2060	
1700	0	2048	2055	2051	2055	
1701	0	2052	2050	2048	2048	
1702	0	2054	2050	2046	2041	
1703	0	2053	2047	2042	2038	
1704	0	2051	2053	2044	2042	
1705	0	2048	2051	2044	2053	
1706	0	2049	2053	2047	2048	
1707	0	2049	2053	2047	2046	
1708	0	2047	2050	2044	2038	
1709	0	2047	2050	2035	2036	
1710	0	2041	2048	2041	2045	
1711	0	2044	2048	2038	2055	
1712	0	2046	2046	2048	2051	
1713	0	2046	2050	2039	2049	
1714	0	2052	2048	2053	2045	
1715	0	2052	2048	2041	2048	
1716	0	2049	2049	2049	2060	
1717	0	2051	2046	2044	2053	
1718	0	2058	2047	2053	2043	
1719	0	2057	2049	2053	2040	
1720	0	2053	2049	2055	2046	
1721	0	2051	2048	2056	2054	
1722	0	2051	2051	2054	2054	
1723	0	2052	2053	2057	2051	
1724	0	2049	2053	2053	2041	
1725	0	2046	2052	2046	2040	
1726	0	2044	2045	2047	2042	
1727	0	2048	2043	2048	2054	
1728	0	2046	2043	2043	2056	
1729	0	2041	2041	2044	2052	
1730	0	2043	2044	2037	2036	
1731	0	2046	2052	2048	2044	
1732	0	2048	2046	2043	2043	
1733	0	2048	2045	2054	2049	
1734	0	2050	2046	2045	2034	
1735	0	2049	2054	2051	2053	
1736	0	2045	2048	2051	2040	
1737	0	2051	2047	2044	2055	
1738	0	2057	2050	2055	2046	
1739	0	2056	2054	2041	2059	
1740	0	2053	2045	2045	2062	
1741	0	2055	2054	2054	2056	
1742	0	2054	2052	2054	2065	
1743	0	2053	2045	2054	2053	
1744	0	2051	2052	2052	2049	
1745	0	2054	2046	2056	2057	
1746	0	2051	2048	2041	2039	
1747	0	2047	2054	2046	2047	
1748	0	2045	2050	2046	2035	
1749	0	2046	2048	2045	2044	
1750	0	2045	2047	2050	2040	
1751	0	2048	2048	2043	2043	
1752	0	2045	2043	2044	2048	
1753	0	2047	2051	2046	2034	
1754	0	2045	2053	2045	2046	
1755	0	2046	2047	2045	2040	
1756	0	2047	2046	2034	2058	
1757	0	2050	2046	2049	2056	
1758	0	2053	2047	2040	2044	
1759	0	2054	2048	2053	2041	
1760	0	2056	2053	2048	2045	
1761	0	2059	2056	2057	2053	
1762	0	2058	2052	2044	2057	
1763	0	2055	2051	2057	2048	
1764	0	2054	2050	2049	2039	
1765	0	2046	2048	2045	2044	
1766	0	2046	2045	2051	2050	
1767	0	2043	2048	2044	2040	
1768	0	2041	2041	2039	2036	
1769	0	2043	2042	2031	2049	
1770	0	2047	2044	2042	2053	
1771	0	2043	2044	2032	2048	
1772	0	2041	2045	2046	2041	
1773	0	2044	2052	2040	2038	
1774	0	2049	2050	2049	2038	
1775	0	2049	2052	2043	2049	
1776	0	2051	2052	2053	2058	
1777	0	2054	2055	2050	2056	
1778	0	2055	2056	2058	2049	
1779	0	2056	2053	2048	2043	
1780	0	2055	2047	2054	2044	
1781	0	2056	2050	2050	2056	
1782	0	2053	2048	2052	2056	
1783	0	2050	2047	2056	2050	
1784	0	2052	2047	2055	2044	
1785	0	2050	2043	2052	2044	
1786	0	2046	2042	2050	2050	
1787	0	2046	2042	2044	2053	
1788	0	2044	2042	2035	2041	
1789	0	2042	2047	2040	2040	
1790	0	2045	2046	2035	2040	
1791	0	2042	2045	2049	2052	
1792	0	2045	2045	2050	2048	
1793	0	2049	2047	2050	2037	
1794	0	2051	2049	2049	2039	
1795	0	2050	2055	2044	2045	
1796	0	2052	2051	2051	2059	
1797	0	2049	2051	2043	2050	
1798	0	2048	2051	2055	2037	
1799	0	2052	2050	2055	2049	
1800	0	2051	2053	2051	2059	
1801	0	2049	2056	2053	2059	
1802	0	2056	2057	2046	2050	
1803	0	2052	2053	2048	2047	
1804	0	2051	2051	2049	2046	
1805	0	2053	2051	2051	2052	
1806	0	2052	2046	2051	2046	
1807	0	2047	2044	2041	2039	
1808	0	2046	2040	2036	2038	
1809	0	2045	2045	2049	2044	
1810	0	2043	2042	2048	2048	
1811	0	2044	2045	2051	2049	
1812	0	2046	2044	2054	2042	
1813	0	2044	2050	2049	2042	
1814	0	2046	2054	2048	2037	
1815	0	2053	2056	2051	2044	
1816	0	2050	2052	2055	2056	
1817	0	2050	2057	2053	2052	
1818	0	2053	2055	2052	2045	
1819	0	2056	2053	2041	2045	
1820	0	2056	2051	2050	2051	
1821	0	2053	2049	2055	2055	
1822	0	2050	2050	2054	2056	
1823	0	2050	2048	2046	2051	
1824	0	2048	2046	2043	2044	
1825	0	2046	2050	2039	2046	
1826	0	2047	2049	2052	2054	
1827	0	2047	2051	2051	2051	
1828	0	2048	2054	2047	2046	
1829	0	2043	2056	2048	2033	
1830	0	2049	2048	2042	2038	
1831	0	2047	2048	2042	2053	
1832	0	2044	2044	2037	2045	
1833	0	2044	2046	2046	2040	
1834	0	2049	2047	2043	2040	
1835	0	2050	2048	2050	2057	
1836	0	2055	2050	2042	2048	
1837	0	2056	2051	2053	2042	
1838	0	2054	2053	2046	2046	
1839	0	2056	2053	2055	2055	
1840	0	2051	2054	2052	2051	
1841	0	2052	2054	2054	2042	
1842	0	2049	2048	2050	2043	
1843	0	2051	2046	2047	2051	
1844	0	2051	2045	2048	2051	
1845	0	2049	2046	2049	2048	
1846	0	2049	2053	2051	2042	
1847	0	2049	2051	2050	2059	
1848	0	2044	2049	2048	2053	
1849	0	2044	2051	2049	2053	
1850	0	2047	2052	2048	2039	
1851	0	2049	2047	2047	2042	
1852	0	2050	2040	2049	2057	
1853	0	2049	2047	2048	2055	
1854	0	2048	2049	2049	2052	
1855	0	2052	2049	2050	2042	
1856	0	2047	2047	2054	2049	
1857	0	2051	2054	2054	2044	
1858	0	2056	2056	2058	2044	
1859	0	2057	2052	2054	2054	
1860	0	2049	2047	2045	2053	
1861	0	2048	2048	2052	2046	
1862	0	2045	2049	2042	2040	
1863	0	2052	2048	2050	2044	
1864	0	2050	2047	2043	2048	
1865	0	2049	2050	2049	2050	
1866	0	2049	2054	2043	2054	
1867	0	2045	2045	2044	2048	
1868	0	2044	2046	2034	2042	
1869	0	2046	2048	2044	2038	
1870	0	2048	2046	2045	2040	
1871	0	2048	2054	2036	2044	
1872	0	2048	2047	2044	2055	
1873	0	2049	2046	2046	2041	
1874	0	2052	2050	2046	2052	
1875	0	2051	2048	2045	2045	
1876	0	2049	2051	2054	2045	
1877	0	2051	2046	2056	2056	
1878	0	2048	2044	2048	2043	
1879	0	2053	2051	2046	2054	
1880	0	2052	2049	2053	2052	
1881	0	2052	2047	2050	2044	
1882	0	2050	2056	2043	2051	
1883	0	2049	2048	2051	2043	
1884	0	2048	2051	2050	2054	
1885	0	2046	2051	2040	2044	
1886	0	2048	2048	2054	2045	
1887	0	2052	2046	2055	2049	
1888	0	2047	2046	2046	2039	
1889	0	2046	2043	2054	2050	
1890	0	2044	2048	2056	2055	
1891	0	2047	2047	2046	2045	
1892	0	2049	2044	2034	2048	
1893	0	2048	2050	2035	2043	
1894	0	2049	2048	2050	2044	
1895	0	2048	2053	2047	2051	
1896	0	2046	2049	2046	2045	
1897	0	2048	2041	2046	2049	
1898	0	2054	2047	2045	2063	
1899	0	2056	2048	2057	2047	
1900	0	2057	2057	2055	2050	
1901	0	2053	2048	2042	2058	
1902	0	2052	2046	2038	2035	
1903	0	2055	2050	2043	2051	
1904	0	2050	2048	2051	2051	
1905	0	2052	2050	2050	2035	
1906	0	2050	2046	2054	2044	
1907	0	2048	2053	2048	2049	
1908	0	2046	2047	2045	2039	
1909	0	2044	2046	2040	2057	
1910	0	2041	2052	2043	2040	
1911	0	2041	2049	2043	2054	
1912	0	2045	2046	2035	2038	
1913	0	2047	2050	2051	2048	
1914	0	2052	2052	2057	2040	
1915	0	2054	2050	2054	2047	
1916	0	2051	2057	2047	2056	
1917	0	2054	2051	2053	2044	
1918	0	2052	2047	2057	2060	
1919	0	2050	2054	2048	2040	
1920	0	2055	2050	2042	2052	
1921	0	2053	2051	2040	2048	
1922	0	2052	2054	2051	2044	
1923	0	2054	2048	2053	2057	
1924	0	2051	2050	2050	2040	
1925	0	2049	2052	2045	2053	
1926	0	2046	2044	2051	2038	
1927	0	2044	2048	2048	2049	
1928	0	2043	2043	2038	2043	
1929	0	2045	2040	2039	2049	
1930	0	2047	2051	2042	2052	
1931	0	2049	2045	2048	2041	
1932	0	2044	2052	2048	2053	
1933	0	2048	2050	2046	2047	
1934	0	2051	2052	2057	2041	
1935	0	2052	2048	2059	2051	
1936	0	2052	2047	2052	2044	
1937	0	2050	2055	2040	2046	
1938	0	2054	2052	2045	2059	
1939	0	2055	2056	2047	2041	
1940	0	2057	2055	2047	2053	
1941	0	2053	2046	2048	2052	
1942	0	2052	2054	2039	2043	
1943	0	2052	2053	2043	2050	
1944	0	2051	2055	2041	2049	
1945	0	2046	2050	2045	2045	
1946	0	2051	2047	2057	2049	
1947	0	2044	2045	2056	2054	
1948	0	2044	2040	2045	2041	
1949	0	2045	2048	2047	2052	
1950	0	2046	2045	2048	2048	
1951	0	2044	2049	2043	2042	
1952	0	2042	2048	2049	2051	
1953	0	2044	2044	2053	2036	
1954	0	2048	2050	2048	2052	
1955	0	2051	2049	2049	2041	
1956	0	2049	2046	2055	2049	
1957	0	2054	2054	2055	2053	
1958	0	2057	2051	2053	2040	
1959	0	2052	2049	2047	2055	
1960	0	2052	2055	2046	2037	
1961	0	2052	2048	2053	2050	
1962	0	2052	2053	2052	2050	
1963	0	2052	2048	2048	2048	
1964	0	2051	2046	2048	2061	
1965	0	2048	2050	2053	2049	
1966	0	2047	2051	2044	2059	
1967	0	2047	2048	2037	2045	
1968	0	2046	2051	2033	2053	
1969	0	2048	2047	2034	2039	
1970	0	2050	2041	2046	2043	
1971	0	2047	2050	2047	2048	
1972	0	2049	2042	2051	2042	
1973	0	2048	2050	2050	2036	
1974	0	2048	2050	2047	2048	
1975	0	2048	2055	2044	2042	
1976	0	2051	2045	2049	2045	
1977	0	2052	2051	2053	2049	
1978	0	2052	2049	2052	2056	
1979	0	2050	2054	2055	2043	
1980	0	2050	2050	2060	2050	
1981	0	2055	2044	2061	2056	
1982	0	2054	2050	2045	2057	
1983	0	2050	2048	2046	2047	
1984	0	2050	2050	2037	2042	
1985	0	2049	2047	2044	2042	
1986	0	2049	2049	2040	2051	
1987	0	2051	2048	2047	2052	
1988	0	2051	2044	2044	2047	
1989	0	2047	2049	2043	2043	
1990	0	2045	2050	2046	2038	
1991	0	2044	2052	2050	2047	
1992	0	2044	2051	2055	2053	
1993	0	2048	2050	2042	2057	
1994	0	2050	2050	2045	2051	
1995	0	2051	2049	2044	2041	
1996	0	2054	2045	2055	2040	
1997	0	2051	2047	2057	2055	
1998	0	2050	2049	2055	2057	
1999	0	2050	2048	2056	2052	
2000	0	2052	2048	2048	2042	
2001	0	2052	2049	2051	2037	
2002	0	2053	2048	2043	2047	
2003	0	2048	2047	2052	2052	
2004	0	2049	2050	2052	2052	
2005	0	2050	2049	2050	2053	
2006	0	2057	2045	2054	2048	
2007	0	2048	2050	2050	2045	
2008	0	2044	2046	2048	2045	
2009	0	2047	2049	2048	2036	
2010	0	2045	2052	2047	2038	
2011	0	2046	2047	2051	2049	
2012	0	2044	2044	2051	2037	
2013	0	2045	2051	2039	2049	
2014	0	2045	2047	2030	2041	
2015	0	2047	2046	2044	2052	
2016	0	2047	2052	2047	2057	
2017	0	2055	2047	2050	2045	
2018	0	2057	2052	2050	2056	
2019	0	2055	2052	2055	2053	
2020	0	2058	2053	2055	2051	
2021	0	2054	2058	2052	2057	
2022	0	2049	2050	2042	2044	
2023	0	2050	2050	2045	2056	
2024	0	2052	2048	2052	2058	
2025	0	2050	2044	2053	2040	
2026	0	2050	2052	2046	2051	
2027	0	2048	2046	2053	2044	
2028	0	2044	2040	2040	2049	
2029	0	2042	2052	2032	2044	
2030	0	2049	2050	2043	2035	
2031	0	2048	2045	2044	2045	
2032	0	2044	2049	2050	2041	
2033	0	2046	2050	2052	2047	
2034	0	2046	2047	2040	2038	
2035	0	2050	2050	2056	2050	
2036	0	2048	2048	2056	2039	
2037	0	2052	2051	2054	2057	
2038	0	2060	2048	2055	2048	
2039	0	2054	2054	2040	2064	
2040	0	2052	2046	2051	2045	
2041	0	2051	2046	2056	2058	
2042	0	2051	2051	2053	2044	
2043	0	2049	2050	2050	2049	
2044	0	2051	2046	2036	2043	
2045	0	2050	2050	2045	2048	
2046	0	2050	2052	2046	2044	
2047	0	2045	2048	2049	2047	
2048	0	2046	2044	2044	2048	
2049	0	2048	2051	2037	2046	
2050	0	2048	2051	2048	2044	
2051	0	2044	2044	2050	2039	
2052	0	2047	2043	2050	2055	
2053	0	2046	2052	2042	2040	
2054	0	2045	2050	2044	2052	
2055	0	2048	2049	2053	2041	
2056	0	2050	2052	2052	2052	
2057	0	2055	2051	2058	2049	
2058	0	2052	2050	2052	2052	
2059	0	2054	2056	2043	2051	
2060	0	2056	2052	2051	2048	
2061	0	2050	2047	2054	2052	
2062	0	2051	2047	2049	2047	
2063	0	2051	2052	2055	2064	
2064	0	2051	2043	2043	2043	
2065	0	2049	2045	2039	2058	
2066	0	2044	2053	2047	2038	
2067	0	2046	2045	2053	2046	
2068	0	2049	2051	2045	2031	
2069	0	2045	2047	2053	2042	
2070	0	2046	2047	2046	2050	
2071	0	2049	2047	2039	2047	
2072	0	2049	2052	2045	2055	
2073	0	2047	2050	2039	2040	
2074	0	2048	2046	2038	2055	
2075	0	2051	2055	2048	2040	
2076	0	2049	2047	2050	2061	
2077	0	2053	2044	2045	2046	
2078	0	2054	2055	2054	2052	
2079	0	2056	2050	2049	2038	
2080	0	2052	2047	2054	2052	
2081	0	2047	2048	2054	2040	
2082	0	2049	2052	2044	2045	
2083	0	2051	2047	2051	2047	
2084	0	2046	2048	2049	2044	
2085	0	2048	2048	2049	2051	
2086	0	2049	2043	2047	2039	
2087	0	2043	2051	2051	2047	
2088	0	2044	2048	2049	2053	
2089	0	2043	2046	2038	2039	
2090	0	2046	2053	2041	2048	
2091	0	2049	2045	2051	2054	
2092	0	2046	2043	2049	2039	
2093	0	2046	2051	2052	2047	
2094	0	2050	2046	2049	2041	
2095	0	2051	2052	2046	2038	
2096	0	2055	2052	2053	2049	
2097	0	2051	2049	2044	2040	
2098	0	2054	2056	2044	2053	
2099	0	2050	2050	2051	2043	
2100	0	2053	2045	2051	2063	
2101	0	2052	2053	2051	2046	
2102	0	2052	2044	2043	2048	
2103	0	2049	2051	2045	2055	
2104	0	2051	2044	2047	2057	
2105	0	2050	2047	2049	2054	
2106	0	2051	2045	2052	2044	
2107	0	2051	2046	2050	2042	
2108	0	2049	2047	2039	2043	
2109	0	2045	2049	2047	2049	
2110	0	2052	2051	2039	2051	
2111	0	2046	2047	2050	2048	
2112	0	2048	2048	2038	2046	
2113	0	2051	2053	2050	2043	
2114	0	2045	2056	2040	2043	
2115	0	2048	2055	2051	2045	
2116	0	2043	2042	2039	2057	
2117	0	2044	2045	2051	2054	
2118	0	2054	2047	2053	2049	
2119	0	2052	2048	2054	2047	
2120	0	2053	2049	2057	2044	
2121	0	2051	2046	2048	2042	
2122	0	2050	2048	2050	2047	
2123	0	2052	2047	2044	2054	
2124	0	2051	2048	2043	2056	
2125	0	2053	2048	2042	2053	
2126	0	2048	2055	2054	2040	
2127	0	2046	2049	2043	2035	
2128	0	2045	2048	2049	2037	
2129	0	2043	2049	2044	2047	
2130	0	2043	2053	2051	2050	
2131	0	2046	2048	2051	2049	
2132	0	2047	2048	2042	2045	
2133	0	2048	2051	2045	2038	
2134	0	2051	2054	2038	2042	
2135	0	2048	2049	2048	2053	
2136	0	2052	2045	2045	2057	
2137	0	2051	2051	2049	2058	
2138	0	2055	2050	2058	2054	
2139	0	2059	2047	2054	2046	
2140	0	2056	2050	2056	2046	
2141	0	2053	2051	2058	2052	
2142	0	2054	2052	2057	2059	
2143	0	2057	2051	2051	2048	
2144	0	2052	2052	2046	2047	
2145	0	2047	2051	2036	2037	
2146	0	2045	2052	2046	2042	
2147	0	2047	2046	2039	2050	
2148	0	2049	2048	2046	2045	
2149	0	2046	2054	2049	2039	
2150	0	2046	2048	2044	2042	
2151	0	2043	2044	2048	2055	
2152	0	2040	2049	2041	2056	
2153	0	2045	2055	2050	2044	
2154	0	2044	2049	2046	2042	
2155	0	2049	2052	2056	2046	
2156	0	2052	2046	2055	2058	
2157	0	2054	2049	2051	2052	
2158	0	2056	2051	2046	2043	
2159	0	2054	2049	2045	2042	
2160	0	2051	2047	2052	2044	
2161	0	2053	2053	2046	2053	
2162	0	2052	2051	2053	2048	
2163	0	2053	2048	2052	2049	
2164	0	2052	2050	2050	2047	
2165	0	2048	2045	2043	2047	
2166	0	2047	2048	2047	2041	
2167	0	2047	2054	2053	2044	
2168	0	2044	2044	2044	2054	
2169	0	2044	2048	2037	2046	
2170	0	2046	2052	2038	2036	
2171	0	2048	2054	2048	2038	
2172	0	2046	2049	2050	2044	
2173	0	2050	2049	2039	2052	
2174	0	2046	2045	2048	2047	
2175	0	2051	2046	2043	2042	
2176	0	2051	2045	2053	2044	
2177	0	2054	2048	2060	2053	
2178	0	2055	2048	2057	2052	
2179	0	2051	2048	2050	2046	
2180	0	2052	2045	2038	2043	
2181	0	2049	2050	2048	2052	
2182	0	2052	2048	2043	2059	
2183	0	2053	2048	2047	2054	
2184	0	2051	2049	2048	2044	
2185	0	2047	2046	2048	2042	
2186	0	2051	2047	2050	2036	
2187	0	2050	2055	2046	2048	
2188	0	2049	2054	2051	2054	
2189	0	2046	2053	2035	2049	
2190	0	2042	2052	2047	2042	
2191	0	2046	2048	2054	2036	
2192	0	2045	2043	2050	2035	
2193	0	2046	2045	2046	2049	
2194	0	2046	2048	2041	2050	
2195	0	2048	2050	2052	2044	
2196	0	2049	2046	2048	2043	
2197	0	2053	2041	2053	2045	
2198	0	2055	2042	2061	2056	
2199	0	2050	2045	2055	2065	
2200	0	2054	2040	2048	2059	
2201	0	2055	2049	2042	2048	
2202	0	2050	2045	2053	2047	
2203	0	2052	2048	2050	2059	
2204	0	2048	2052	2047	2059	
2205	0	2047	2047	2050	2054	
2206	0	2046	2052	2039	2039	
2207	0	2045	2051	2046	2033	
2208	0	2047	2052	2044	2039	
2209	0	2046	2050	2051	2051	
2210	0	2043	2050	2052	2044	
2211	0	2045	2052	2050	2036	
2212	0	2044	2054	2042	2036	
2213	0	2050	2047	2039	2050	
2214	0	2048	2051	2055	2048	
2215	0	2047	2047	2052	2038	
2216	0	2050	2047	2054	2043	
2217	0	2052	2046	2056	2056	
2218	0	2054	2047	2051	2058	
2219	0	2051	2045	2050	2056	
2220	0	2050	2047	2042	2047	
2221	0	2054	2050	2053	2045	
2222	0	2054	2052	2048	2047	
2223	0	2053	2052	2049	2048	
2224	0	2053	2053	2046	2059	
2225	0	2051	2052	2034	2050	
2226	0	2052	2049	2048	2042	
2227	0	2048	2048	2042	2052	
2228	0	2047	2050	2045	2047	
2229	0	2046	2047	2048	2036	
2230	0	2044	2049	2041	2036	
2231	0	2047	2047	2054	2046	
2232	0	2047	2051	2052	2050	
2233	0	2046	2053	2045	2042	
2234	0	2046	2056	2045	2041	
2235	0	2053	2059	2044	2051	
2236	0	2052	2051	2050	2049	
2237	0	2053	2052	2053	2048	
2238	0	2051	2049	2047	2043	
2239	0	2052	2046	2045	2054	
2240	0	2053	2048	2039	2056	
2241	0	2052	2050	2056	2052	
2242	0	2053	2046	2056	2046	
2243	0	2055	2045	2054	2040	
2244	0	2051	2042	2050	2049	
2245	0	2048	2044	2040	2051	
2246	0	2052	2049	2051	2051	
2247	0	2046	2044	2052	2046	
2248	0	2047	2044	2048	2044	
2249	0	2043	2042	2048	2057	
2250	0	2043	2042	2040	2050	
2251	0	2047	2042	2050	2042	
2252	0	2046	2045	2037	2038	
2253	0	2047	2053	2045	2052	
2254	0	2048	2054	2048	2051	
2255	0	2050	2055	2043	2040	
2256	0	2050	2053	2049	2037	
2257	0	2052	2050	2042	2042	
2258	0	2052	2049	2054	2054	
2259	0	2053	2053	2047	2051	
2260	0	2052	2051	2054	2043	
2261	0	2050	2049	2049	2052	
2262	0	2051	2048	2040	2050	
2263	0	2051	2049	2048	2043	
2264	0	2054	2054	2048	2040	
2265	0	2052	2054	2052	2058	
2266	0	2051	2052	2049	2049	
2267	0	2048	2042	2039	2042	
2268	0	2047	2046	2046	2037	
2269	0	2045	2046	2043	2051	
2270	0	2046	2050	2044	2050	
2271	0	2045	2049	2049	2050	
2272	0	2048	2053	2052	2040	
2273	0	2050	2050	2048	2038	
2274	0	2047	2041	2047	2043	
2275	0	2046	2043	2049	2056	
2276	0	2049	2041	2039	2060	
2277	0	2051	2043	2057	2053	
2278	0	2054	2049	2052	2048	
2279	0	2052	2045	2057	2054	
2280	0	2050	2050	2056	2051	
2281	0	2050	2048	2051	2045	
2282	0	2052	2043	2044	2044	
2283	0	2049	2048	2039	2056	
2284	0	2047	2048	2051	2049	
2285	0	2052	2050	2042	2039	
2286	0	2050	2048	2044	2040	
2287	0	2047	2047	2034	2047	
2288	0	2044	2050	2046	2046	
2289	0	2043	2048	2048	2034	
2290	0	2045	2048	2050	2038	
2291	0	2051	2057	2052	2047	
2292	0	2046	2052	2052	2052	
2293	0	2047	2054	2050	2049	
2294	0	2049	2052	2042	2040	
2295	0	2051	2057	2054	2044	
2296	0	2047	2052	2037	2052	
2297	0	2053	2048	2053	2059	
2298	0	2054	2052	2048	2046	
2299	0	2058	2054	2052	2046	
2300	0	2060	2050	2059	2056	
2301	0	2059	2049	2050	2050	
2302	0	2056	2050	2054	2047	
2303	0	2050	2047	2050	2044	
2304	0	2050	2043	2052	2044	
2305	0	2044	2042	2040	2058	
2306	0	2046	2043	2048	2050	
2307	0	2046	2046	2037	2042	
2308	0	2044	2047	2040	2045	
2309	0	2048	2046	2045	2053	
2310	0	2045	2045	2042	2050	
2311	0	2047	2044	2049	2043	
2312	0	2048	2045	2040	2045	
2313	0	2046	2043	2052	2057	
2314	0	2046	2050	2050	2051	
2315	0	2048	2048	2049	2041	
2316	0	2052	2045	2050	2041	
2317	0	2050	2047	2046	2054	
2318	0	2054	2053	2057	2054	
2319	0	2053	2053	2051	2045	
2320	0	2055	2054	2049	2040	
2321	0	2055	2054	2045	2053	
2322	0	2051	2048	2042	2049	
2323	0	2050	2050	2051	2042	
2324	0	2048	2051	2047	2043	
2325	0	2047	2048	2053	2051	
2326	0	2047	2051	2052	2054	
2327	0	2046	2052	2041	2043	
2328	0	2046	2051	2051	2048	
2329	0	2045	2052	2042	2048	
2330	0	2049	2050	2044	2039	
2331	0	2047	2049	2049	2041	
2332	0	2046	2051	2049	2052	
2333	0	2046	2054	2046	2051	
2334	0	2051	2054	2042	2044	
2335	0	2052	2052	2046	2044	
2336	0	2050	2050	2035	2062	
2337	0	2054	2046	2049	2055	
2338	0	2052	2046	2048	2044	
2339	0	2048	2047	2052	2043	
2340	0	2056	2049	2049	2058	
2341	0	2055	2051	2040	2050	
2342	0	2054	2046	2053	2041	
2343	0	2048	2045	2060	2051	
2344	0	2050	2046	2048	2049	
2345	0	2050	2044	2048	2044	
2346	0	2052	2042	2044	2042	
2347	0	2042	2044	2054	2051	
2348	0	2046	2046	2052	2047	
2349	0	2044	2043	2036	2043	
2350	0	2043	2041	2046	2050	
2351	0	2046	2043	2045	2055	
2352	0	2040	2048	2044	2042	
2353	0	2043	2051	2042	2035	
2354	0	2048	2048	2034	2049	
2355	0	2046	2048	2047	2045	
2356	0	2047	2044	2051	2043	
2357	0	2054	2048	2055	2042	
2358	0	2060	2051	2049	2054	
2359	0	2055	2049	2044	2054	
2360	0	2061	2046	2058	2046	
2361	0	2057	2048	2060	2043	
2362	0	2053	2047	2056	2052	
2363	0	2052	2049	2047	2054	
2364	0	2046	2048	2035	2049	
2365	0	2047	2051	2049	2044	
2366	0	2048	2056	2049	2042	
2367	0	2048	2056	2051	2038	
2368	0	2046	2049	2047	2045	
2369	0	2041	2047	2049	2050	
2370	0	2044	2040	2052	2048	
2371	0	2044	2044	2046	2050	
2372	0	2048	2046	2044	2044	
2373	0	2050	2047	2037	2042	
2374	0	2049	2049	2049	2051	
2375	0	2051	2053	2040	2051	
2376	0	2051	2050	2053	2051	
2377	0	2049	2050	2045	2043	
2378	0	2054	2049	2053	2042	
2379	0	2053	2053	2054	2054	
2380	0	2053	2049	2058	2059	
2381	0	2055	2054	2055	2056	
2382	0	2052	2059	2055	2053	
2383	0	2051	2055	2051	2044	
2384	0	2047	2046	2050	2039	
2385	0	2046	2044	2046	2043	
2386	0	2047	2043	2046	2054	
2387	0	2047	2048	2049	2047	
2388	0	2046	2041	2039	2042	
2389	0	2045	2042	2045	2039	
2390	0	2045	2042	2039	2040	
2391	0	2044	2048	2048	2051	
2392	0	2048	2046	2043	2050	
2393	0	2046	2048	2049	2055	
2394	0	2049	2051	2043	2052	
2395	0	2051	2051	2052	2041	
2396	0	2049	2046	2046	2042	
2397	0	2049	2051	2052	2046	
2398	0	2054	2052	2052	2051	
2399	0	2051	2049	2053	2060	
2400	0	2054	2052	2056	2050	
2401	0	2054	2053	2049	2042	
2402	0	2053	2055	2048	2046	
2403	0	2051	2054	2047	2054	
2404	0	2051	2055	2054	2049	
2405	0	2052	2056	2055	2041	
2406	0	2044	2047	2051	2042	
2407	0	2045	2046	2046	2052	
2408	0	2042	2045	2033	2047	
2409	0	2048	2042	2041	2037	
2410	0	2046	2045	2036	2032	
2411	0	2047	2045	2044	2048	
2412	0	2049	2042	2046	2046	
2413	0	2050	2043	2042	2049	
2414	0	2051	2046	2053	2046	
2415	0	2052	2051	2048	2044	
2416	0	2056	2049	2059	2051	
2417	0	2053	2048	2060	2062	
2418	0	2056	2048	2058	2056	
2419	0	2053	2048	2054	2048	
2420	0	2049	2055	2050	2047	
2421	0	2053	2052	2053	2043	
2422	0	2052	2051	2048	2047	
2423	0	2049	2050	2048	2057	
2424	0	2049	2050	2042	2055	
2425	0	2043	2051	2047	2041	
2426	0	2048	2052	2040	2038	
2427	0	2045	2049	2045	2044	
2428	0	2045	2046	2042	2051	
2429	0	2044	2045	2050	2051	
2430	0	2049	2046	2047	2051	
2431	0	2044	2044	2048	2045	
2432	0	2046	2045	2046	2040	
2433	0	2044	2047	2038	2052	
2434	0	2049	2045	2046	2045	
2435	0	2049	2053	2043	2037	
2436	0	2052	2051	2056	2038	
2437	0	2054	2051	2051	2045	
2438	0	2058	2050	2060	2052	
2439	0	2055	2053	2062	2057	
2440	0	2055	2055	2060	2055	
2441	0	2055	2055	2059	2047	
2442	0	2059	2053	2055	2046	
2443	0	2053	2056	2050	2062	
2444	0	2048	2046	2048	2061	
2445	0	2050	2048	2048	2055	
2446	0	2048	2052	2044	2047	
2447	0	2045	2051	2047	2041	
2448	0	2041	2052	2044	2036	
2449	0	2042	2049	2048	2043	
2450	0	2044	2048	2045	2048	
2451	0	2044	2042	2044	2039	
2452	0	2047	2044	2039	2032	
2453	0	2053	2046	2050	2051	
2454	0	2053	2046	2053	2052	
2455	0	2054	2044	2054	2045	
2456	0	2055	2044	2056	2047	
2457	0	2054	2045	2052	2056	
2458	0	2052	2046	2058	2060	
2459	0	2055	2049	2056	2052	
2460	0	2055	2050	2056	2047	
2461	0	2051	2050	2045	2041	
2462	0	2046	2050	2049	2043	
2463	0	2050	2048	2037	2053	
2464	0	2050	2049	2037	2059	
2465	0	2044	2049	2046	2053	
2466	0	2043	2049	2047	2045	
2467	0	2047	2046	2039	2041	
2468	0	2046	2042	2045	2051	
2469	0	2043	2043	2039	2052	
2470	0	2041	2047	2043	2052	
2471	0	2046	2053	2043	2051	
2472	0	2050	2050	2043	2038	
2473	0	2047	2048	2037	2039	
2474	0	2048	2054	2041	2043	
2475	0	2048	2059	2045	2047	
2476	0	2050	2054	2050	2046	
2477	0	2049	2050	2043	2040	
2478	0	2052	2050	2056	2042	
2479	0	2056	2044	2044	2057	
2480	0	2055	2045	2055	2059	
2481	0	2053	2049	2040	2054	
2482	0	2050	2051	2053	2051	
2483	0	2053	2050	2044	2042	
2484	0	2050	2050	2052	2048	
2485	0	2046	2044	2048	2058	
2486	0	2046	2050	2056	2056	
2487	0	2047	2050	2055	2043	
2488	0	2043	2049	2045	2036	
2489	0	2044	2055	2046	2037	
2490	0	2045	2052	2038	2052	
2491	0	2045	2052	2039	2046	
2492	0	2049	2050	2033	2042	
2493	0	2052	2052	2048	2038	
2494	0	2051	2051	2044	2050	
2495	0	2050	2051	2048	2056	
2496	0	2054	2056	2054	2058	
2497	0	2057	2057	2054	2046	
2498	0	2058	2050	2057	2043	
2499	0	2054	2053	2055	2042	
2500	0	2053	2046	2060	2051	
2501	0	2053	2051	2055	2053	
2502	0	2054	2048	2054	2050	
2503	0	2052	2044	2041	2037	
2504	0	2048	2044	2046	2041	
2505	0	2049	2046	2050	2052	
2506	0	2050	2047	2052	2050	
2507	0	2046	2043	2039	2044	
2508	0	2045	2045	2040	2036	
2509	0	2044	2044	2036	2038	
2510	0	2046	2043	2048	2051	
2511	0	2045	2048	2041	2051	
2512	0	2048	2045	2048	2050	
2513	0	2049	2051	2044	2046	
2514	0	2048	2055	2057	2041	
2515	0	2046	2054	2043	2047	
2516	0	2051	2052	2050	2058	
2517	0	2051	2050	2041	2056	
2518	0	2053	2050	2053	2052	
2519	0	2050	2050	2048	2043	
2520	0	2055	2048	2051	2043	
2521	0	2056	2051	2045	2041	
2522	0	2053	2051	2047	2047	
2523	0	2051	2053	2036	2052	
2524	0	2046	2051	2047	2056	
2525	0	2048	2053	2040	2052	
2526	0	2050	2050	2047	2046	
2527	0	2046	2049	2044	2047	
2528	0	2045	2044	2048	2043	
2529	0	2048	2045	2038	2038	
2530	0	2046	2044	2049	2045	
2531	0	2049	2046	2043	2054	
2532	0	2047	2046	2052	2052	
2533	0	2047	2049	2054	2045	
2534	0	2050	2052	2056	2042	
2535	0	2053	2050	2058	2044	
2536	0	2051	2049	2055	2053	
2537	0	2054	2053	2055	2058	
2538	0	2052	2053	2054	2057	
2539	0	2052	2051	2050	2050	
2540	0	2054	2048	2054	2051	
2541	0	2054	2050	2051	2042	
2542	0	2048	2053	2048	2040	
2543	0	2047	2048	2044	2040	
2544	0	2045	2045	2044	2046	
2545	0	2044	2050	2051	2052	
2546	0	2046	2045	2051	2051	
2547	0	2045	2044	2048	2052	
2548	0	2044	2050	2050	2042	
2549	0	2049	2045	2050	2042	
2550	0	2045	2044	2052	2039	
2551	0	2051	2042	2048	2039	
2552	0	2050	2044	2048	2045	
2553	0	2049	2047	2038	2050	
2554	0	2051	2049	2053	2051	
2555	0	2051	2051	2038	2048	
2556	0	2053	2052	2051	2044	
2557	0	2052	2059	2039	2041	
2558	0	2059	2058	2058	2050	
2559	0	2050	2057	2048	2055	
2560	0	2051	2057	2052	2048	
2561	0	2050	2060	2051	2045	
2562	0	2056	2054	2046	2046	
2563	0	2053	2051	2044	2053	
2564	0	2049	2046	2045	2056	
2565	0	2046	2043	2051	2051	
2566	0	2050	2041	2050	2045	
2567	0	2048	2044	2049	2038	
2568	0	2043	2045	2041	2033	
2569	0	2046	2042	2047	2041	
2570	0	2044	2047	2047	2049	
2571	0	2045	2048	2050	2054	
2572	0	2047	2046	2050	2052	
2573	0	2045	2049	2055	2046	
2574	0	2048	2042	2055	2043	
2575	0	2048	2045	2050	2044	
2576	0	2050	2046	2054	2046	
2577	0	2048	2049	2053	2044	
2578	0	2051	2049	2052	2064	
2579	0	2054	2053	2048	2060	
2580	0	2056	2056	2053	2057	
2581	0	2054	2061	2050	2050	
2582	0	2056	2060	2049	2046	
2583	0	2052	2053	2053	2041	
2584	0	2049	2047	2051	2045	
2585	0	2050	2043	2053	2052	
2586	0	2044	2044	2048	2045	
2587	0	2048	2044	2050	2037	
2588	0	2047	2042	2050	2033	
2589	0	2039	2042	2052	2035	
2590	0	2044	2043	2045	2045	
2591	0	2048	2046	2050	2054	
2592	0	2044	2045	2048	2051	
2593	0	2050	2053	2053	2048	
2594	0	2049	2056	2051	2048	
2595	0	2050	2053	2053	2043	
2596	0	2051	2050	2051	2055	
2597	0	2055	2048	2054	2062	
2598	0	2057	2054	2052	2057	
2599	0	2056	2048	2051	2049	
2600	0	2054	2050	2044	2040	
2601	0	2056	2046	2049	2044	
2602	0	2049	2048	2038	2059	
2603	0	2050	2048	2044	2055	
2604	0	2050	2049	2036	2050	
2605	0	2047	2048	2044	2043	
2606	0	2045	2056	2042	2035	
2607	0	2045	2048	2055	2042	
2608	0	2043	2046	2047	2053	
2609	0	2048	2049	2049	2050	
2610	0	2048	2048	2038	2045	
2611	0	2048	2048	2048	2039	
2612	0	2045	2042	2036	2039	
2613	0	2047	2045	2049	2041	
2614	0	2047	2046	2044	2050	
2615	0	2051	2053	2050	2057	
2616	0	2050	2043	2051	2051	
2617	0	2051	2048	2042	2044	
2618	0	2050	2051	2052	2043	
2619	0	2053	2054	2044	2049	
2620	0	2054	2053	2055	2052	
2621	0	2054	2050	2054	2045	
2622	0	2048	2051	2053	2041	
2623	0	2051	2052	2056	2042	
2624	0	2051	2051	2053	2051	
2625	0	2050	2054	2047	2049	
2626	0	2049	2052	2041	2042	
2627	0	2045	2045	2050	2040	
2628	0	2046	2046	2043	2047	
2629	0	2046	2050	2046	2053	
2630	0	2043	2048	2044	2048	
2631	0	2044	2048	2043	2049	
2632	0	2051	2045	2047	2035	
2633	0	2051	2051	2038	2041	
2634	0	2053	2051	2048	2049	
2635	0	2050	2048	2048	2057	
2636	0	2051	2047	2045	2055	
2637	0	2054	2048	2054	2047	
2638	0	2054	2049	2045	2045	
2639	0	2053	2053	2042	2039	
2640	0	2052	2049	2037	2047	
2641	0	2052	2051	2048	2053	
2642	0	2053	2053	2050	2051	
2643	0	2051	2051	2054	2043	
2644	0	2048	2047	2056	2040	
2645	0	2045	2044	2040	2054	
2646	0	2044	2046	2050	2045	
2647	0	2046	2046	2051	2039	
2648	0	2048	2044	2048	2045	
2649	0	2045	2044	2047	2052	
2650	0	2045	2048	2034	2042	
2651	0	2043	2051	2050	2039	
2652	0	2047	2054	2045	2036	
2653	0	2050	2050	2053	2054	
2654	0	2048	2048	2056	2051	
2655	0	2051	2052	2048	2043	
2656	0	2052	2053	2058	2043	
2657	0	2052	2051	2051	2042	
2658	0	2056	2052	2064	2056	
2659	0	2059	2051	2058	2063	
2660	0	2058	2054	2042	2064	
2661	0	2055	2049	2051	2057	
2662	0	2050	2047	2043	2051	
2663	0	2050	2049	2052	2051	
2664	0	2051	2052	2050	2064	
2665	0	2049	2051	2049	2060	
2666	0	2049	2049	2055	2046	
2667	0	2048	2047	2039	2040	
2668	0	2046	2046	2053	2054	
2669	0	2043	2046	2051	2059	
2670	0	2043	2046	2046	2047	
2671	0	2045	2047	2041	2040	
2672	0	2043	2047	2038	2057	
2673	0	2047	2046	2046	2052	
2674	0	2054	2045	2041	2038	
2675	0	2050	2050	2034	2038	
2676	0	2050	2051	2045	2052	
2677	0	2053	2047	2040	2044	
2678	0	2050	2050	2050	2041	
2679	0	2053	2052	2050	2031	
2680	0	2056	2051	2042	2026	
2681	0	2053	2052	2043	2031	
2682	0	2047	2049	2038	2044	
2683	0	2046	2050	2039	2045	
2684	0	2046	2046	2029	2036	
2685	0	2045	2050	2043	2031	
2686	0	2042	2047	2038	2034	
2687	0	2042	2046	2040	2043	
2688	0	2040	2048	2035	2049	
2689	0	2042	2049	2038	2039	
2690	0	2040	2047	2040	2034	
2691	0	2037	2043	2031	2046	
2692	0	2042	2049	2037	2054	
2693	0	2045	2049	2039	2048	
2694	0	2045	2046	2052	2045	
2695	0	2049	2051	2057	2041	
2696	0	2056	2046	2056	2059	
2697	0	2056	2052	2060	2063	
2698	0	2057	2053	2048	2055	
2699	0	2055	2051	2052	2057	
2700	0	2054	2054	2053	2060	
2701	0	2052	2051	2055	2067	
2702	0	2054	2053	2056	2054	
2703	0	2054	2056	2059	2048	
2704	0	2052	2056	2052	2044	
2705	0	2047	2054	2040	2054	
2706	0	2049	2051	2052	2047	
2707	0	2045	2053	2044	2037	
2708	0	2048	2052	2055	2038	
2709	0	2052	2053	2051	2040	
2710	0	2044	2050	2049	2048	
2711	0	2047	2050	2045	2045	
2712	0	2046	2053	2041	2039	
2713	0	2046	2048	2048	2040	
2714	0	2053	2052	2053	2055	
2715	0	2052	2048	2054	2056	
2716	0	2053	2052	2053	2051	
2717	0	2054	2053	2043	2046	
2718	0	2057	2053	2055	2059	
2719	0	2055	2055	2051	2053	
2720	0	2051	2055	2046	2046	
2721	0	2055	2055	2049	2048	
2722	0	2054	2054	2047	2051	
2723	0	2056	2056	2054	2058	
2724	0	2052	2054	2049	2052	
2725	0	2045	2056	2053	2039	
2726	0	2046	2051	2048	2036	
2727	0	2046	2044	2053	2044	
2728	0	2045	2045	2051	2051	
2729	0	2046	2045	2050	2049	
2730	0	2045	2043	2045	2050	
2731	0	2041	2043	2039	2041	
2732	0	2041	2043	2045	2041	
2733	0	2045	2042	2037	2054	
2734	0	2042	2044	2044	2050	
2735	0	2047	2041	2046	2044	
2736	0	2053	2049	2041	2043	
2737	0	2054	2051	2053	2056	
2738	0	2057	2053	2048	2053	
2739	0	2055	2053	2056	2048	
2740	0	2054	2049	2054	2040	
2741	0	2054	2051	2043	2039	
2742	0	2051	2052	2050	2056	
2743	0	2054	2049	2047	2059	
2744	0	2052	2048	2052	2050	
2745	0	2046	2050	2049	2040	
2746	0	2045	2051	2040	2048	
2747	0	2047	2055	2045	2053	
2748	0	2044	2051	2033	2049	
2749	0	2043	2045	2051	2041	
2750	0	2044	2051	2047	2039	
2751	0	2044	2049	2051	2040	
2752	0	2048	2049	2049	2052	
2753	0	2050	2052	2040	2053	
2754	0	2046	2045	2053	2044	
2755	0	2051	2050	2051	2043	
2756	0	2054	2050	2051	2050	
2757	0	2057	2052	2049	2059	
2758	0	2056	2053	2041	2059	
2759	0	2051	2051	2047	2050	
2760	0	2056	2054	2048	2044	
2761	0	2056	2049	2053	2043	
2762	0	2055	2049	2044	2050	
2763	0	2052	2045	2051	2053	
2764	0	2051	2047	2054	2046	
2765	0	2044	2050	2040	2037	
2766	0	2045	2045	2045	2030	
2767	0	2045	2045	2039	2034	
2768	0	2043	2044	2045	2048	
2769	0	2046	2045	2052	2050	
2770	0	2046	2043	2051	2049	
2771	0	2045	2042	2056	2038	
2772	0	2046	2046	2050	2036	
2773	0	2048	2044	2045	2051	
2774	0	2050	2046	2046	2051	
2775	0	2053	2047	2057	2055	
2776	0	2052	2047	2054	2053	
2777	0	2056	2048	2053	2043	
2778	0	2052	2049	2054	2043	
2779	0	2054	2046	2040	2062	
2780	0	2051	2050	2046	2056	
2781	0	2054	2050	2040	2050	
2782	0	2056	2048	2052	2046	
2783	0	2051	2047	2057	2044	
2784	0	2046	2045	2048	2042	
2785	0	2050	2047	2041	2050	
2786	0	2046	2045	2044	2050	
2787	0	2048	2044	2050	2044	
2788	0	2044	2046	2052	2044	
2789	0	2042	2042	2039	2052	
2790	0	2041	2046	2044	2050	
2791	0	2039	2046	2042	2041	
2792	0	2048	2051	2045	2038	
2793	0	2049	2055	2048	2055	
2794	0	2048	2050	2046	2054	
2795	0	2054	2055	2058	2045	
2796	0	2056	2053	2054	2040	
2797	0	2054	2057	2048	2051	
2798	0	2052	2058	2054	2053	
2799	0	2054	2054	2055	2048	
2800	0	2054	2050	2046	2040	
2801	0	2051	2049	2048	2048	
2802	0	2049	2051	2037	2055	
2803	0	2052	2052	2052	2053	
2804	0	2051	2051	2055	2049	
2805	0	2047	2049	2052	2044	
2806	0	2048	2052	2047	2045	
2807	0	2046	2052	2038	2052	
2808	0	2042	2047	2050	2052	
2809	0	2046	2050	2049	2045	
2810	0	2047	2046	2037	2036	
2811	0	2043	2048	2051	2047	
2812	0	2048	2052	2049	2052	
2813	0	2046	2049	2050	2050	
2814	0	2045	2049	2050	2044	
2815	0	2044	2047	2035	2045	
2816	0	2052	2044	2053	2055	
2817	0	2058	2048	2052	2046	
2818	0	2050	2050	2042	2053	
2819	0	2056	2049	2045	2044	
2820	0	2054	2052	2044	2040	
2821	0	2056	2051	2051	2047	
2822	0	2053	2050	2048	2058	
2823	0	2048	2048	2054	2051	
2824	0	2043	2049	2054	2038	
2825	0	2046	2052	2046	2039	
2826	0	2046	2053	2044	2040	
2827	0	2051	2050	2036	2054	
2828	0	2047	2056	2045	2056	
2829	0	2048	2054	2045	2050	
2830	0	2046	2052	2050	2045	
2831	0	2048	2046	2047	2040	
2832	0	2051	2046	2049	2041	
2833	0	2048	2044	2045	2053	
2834	0	2051	2046	2038	2054	
2835	0	2050	2046	2055	2057	
2836	0	2051	2041	2045	2056	
2837	0	2053	2046	2055	2048	
2838	0	2052	2049	2057	2045	
2839	0	2052	2046	2053	2054	
2840	0	2050	2050	2051	2057	
2841	0	2050	2049	2049	2049	
2842	0	2049	2038	2046	2044	
2843	0	2049	2045	2040	2041	
2844	0	2049	2050	2051	2041	
2845	0	2049	2051	2037	2052	
2846	0	2048	2054	2049	2050	
2847	0	2050	2054	2042	2048	
2848	0	2049	2054	2052	2044	
2849	0	2045	2052	2049	2041	
2850	0	2044	2051	2049	2038	
2851	0	2046	2052	2044	2044	
2852	0	2046	2051	2038	2053	
2853	0	2048	2055	2048	2053	
2854	0	2049	2058	2048	2049	
2855	0	2055	2056	2053	2042	
2856	0	2056	2055	2050	2052	
2857	0	2053	2051	2041	2056	
2858	0	2053	2051	2054	2053	
2859	0	2055	2052	2058	2046	
2860	0	2054	2054	2051	2038	
2861	0	2053	2056	2043	2040	
2862	0	2048	2058	2038	2050	
2863	0	2052	2054	2054	2046	
2864	0	2048	2051	2056	2041	
2865	0	2047	2050	2050	2042	
2866	0	2046	2051	2048	2051	
2867	0	2044	2054	2040	2050	
2868	0	2042	2047	2045	2053	
2869	0	2047	2049	2048	2044	
2870	0	2046	2053	2041	2047	
2871	0	2048	2049	2052	2057	
2872	0	2049	2048	2048	2052	
2873	0	2049	2047	2048	2042	
2874	0	2049	2048	2040	2049	
2875	0	2051	2050	2042	2055	
2876	0	2051	2056	2051	2048	
2877	0	2051	2052	2052	2042	
2878	0	2055	2053	2051	2043	
2879	0	2055	2056	2048	2047	
2880	0	2058	2054	2042	2058	
2881	0	2051	2052	2054	2048	
2882	0	2049	2052	2051	2043	
2883	0	2046	2052	2050	2048	
2884	0	2051	2048	2049	2051	
2885	0	2049	2047	2040	2043	
2886	0	2049	2049	2048	2035	
2887	0	2044	2046	2052	2043	
2888	0	2048	2044	2042	2053	
2889	0	2046	2049	2044	2052	
2890	0	2044	2048	2037	2045	
2891	0	2045	2051	2050	2044	
2892	0	2049	2053	2047	2040	
2893	0	2047	2055	2052	2042	
2894	0	2052	2058	2051	2056	
2895	0	2047	2056	2039	2057	
2896	0	2046	2053	2049	2056	
2897	0	2055	2053	2048	2046	
2898	0	2059	2048	2055	2047	
2899	0	2054	2044	2056	2053	
2900	0	2053	2048	2043	2054	
2901	0	2052	2046	2046	2045	
2902	0	2052	2045	2043	2041	
2903	0	2051	2047	2052	2039	
2904	0	2052	2046	2042	2045	
2905	0	2049	2047	2047	2050	
2906	0	2046	2043	2050	2042	
2907	0	2047	2046	2043	2038	
2908	0	2042	2045	2045	2039	
2909	0	2046	2049	2042	2047	
2910	0	2045	2048	2039	2053	
2911	0	2048	2050	2037	2052	
2912	0	2045	2051	2047	2046	
2913	0	2045	2050	2052	2038	
2914	0	2045	2051	2045	2043	
2915	0	2047	2050	2049	2055	
2916	0	2048	2051	2048	2054	
2917	0	2050	2053	2055	2047	
2918	0	2053	2057	2057	2042	
2919	0	2054	2055	2045	2050	
2920	0	2053	2053	2049	2057	
2921	0	2052	2054	2047	2052	
2922	0	2054	2055	2049	2044	
2923	0	2051	2052	2050	2042	
2924	0	2046	2048	2052	2048	
2925	0	2048	2047	2050	2052	
2926	0	2047	2044	2036	2047	
2927	0	2045	2042	2048	2046	
2928	0	2044	2042	2054	2042	
2929	0	2046	2043	2051	2040	
2930	0	2048	2046	2050	2051	
2931	0	2047	2044	2044	2053	
2932	0	2048	2045	2046	2049	
2933	0	2050	2048	2041	2041	
2934	0	2049	2049	2053	2040	
2935	0	2049	2049	2054	2046	
2936	0	2049	2051	2047	2062	
2937	0	2055	2051	2044	2054	
2938	0	2053	2051	2040	2049	
2939	0	2052	2049	2051	2044	
2940	0	2052	2053	2040	2038	
2941	0	2056	2053	2046	2042	
2942	0	2050	2055	2045	2055	
2943	0	2052	2054	2049	2057	
2944	0	2050	2046	2056	2052	
2945	0	2047	2045	2042	2048	
2946	0	2045	2043	2045	2040	
2947	0	2043	2043	2040	2037	
2948	0	2041	2051	2046	2048	
2949	0	2044	2049	2049	2053	
2950	0	2044	2045	2048	2049	
2951	0	2047	2043	2046	2040	
2952	0	2051	2045	2039	2034	
2953	0	2048	2048	2046	2045	
2954	0	2050	2050	2049	2054	
2955	0	2051	2044	2052	2052	
2956	0	2049	2046	2052	2048	
2957	0	2057	2046	2044	2045	
2958	0	2055	2044	2055	2058	
2959	0	2058	2051	2044	2064	
2960	0	2054	2053	2058	2062	
2961	0	2051	2048	2056	2050	
2962	0	2049	2048	2048	2044	
2963	0	2049	2049	2045	2045	
2964	0	2046	2052	2042	2053	
2965	0	2047	2052	2050	2047	
2966	0	2046	2050	2046	2039	
2967	0	2047	2052	2039	2036	
2968	0	2043	2049	2042	2042	
2969	0	2043	2048	2034	2050	
2970	0	2044	2047	2047	2052	
2971	0	2047	2045	2046	2047	
2972	0	2046	2043	2052	2039	
2973	0	2047	2044	2053	2040	
2974	0	2050	2050	2049	2040	
2975	0	2050	2049	2049	2044	
2976	0	2053	2050	2048	2054	
2977	0	2057	2058	2046	2057	
2978	0	2055	2054	2052	2055	
2979	0	2059	2051	2057	2049	
2980	0	2055	2049	2054	2043	
2981	0	2053	2048	2058	2040	
2982	0	2052	2047	2047	2047	
2983	0	2053	2045	2054	2057	
2984	0	2046	2048	2048	2053	
2985	0	2048	2045	2053	2041	
2986	0	2047	2047	2053	2039	
2987	0	2048	2051	2051	2037	
2988	0	2046	2051	2050	2042	
2989	0	2046	2049	2048	2047	
2990	0	2045	2044	2051	2046	
2991	0	2039	2043	2045	2050	
2992	0	2041	2043	2048	2038	
2993	0	2045	2047	2042	2044	
2994	0	2045	2050	2049	2051	
2995	0	2054	2044	2048	2056	
2996	0	2056	2055	2049	2047	
2997	0	2058	2056	2056	2044	
2998	0	2057	2059	2055	2040	
2999	0	2056	2048	2051	2049	
3000	0	2053	2046	2052	2049	
3001	0	2054	2047	2042	2051	
3002	0	2050	2045	2055	2047	
3003	0	2047	2046	2043	2046	
3004	0	2049	2050	2050	2054	
3005	0	2046	2054	2050	2053	
3006	0	2049	2048	2049	2046	
3007	0	2048	2044	2052	2039	
3008	0	2043	2047	2045	2043	
3009	0	2046	2047	2044	2050	
3010	0	2045	2052	2044	2044	
3011	0	2043	2057	2043	2039	
3012	0	2044	2052	2039	2036	
3013	0	2048	2053	2049	2052	
3014	0	2052	2051	2054	2058	
3015	0	2050	2046	2056	2053	
3016	0	2054	2050	2048	2044	
3017	0	2049	2044	2047	2051	
3018	0	2050	2048	2050	2058	
3019	0	2050	2049	2041	2049	
3020	0	2053	2049	2049	2047	
3021	0	2051	2047	2044	2041	
3022	0	2050	2047	2052	2051	
3023	0	2051	2049	2050	2053	
3024	0	2048	2048	2043	2050	
3025	0	2045	2050	2046	2037	
3026	0	2046	2046	2038	2045	
3027	0	2049	2045	2051	2053	
3028	0	2049	2047	2053	2048	
3029	0	2048	2045	2048	2040	
3030	0	2046	2050	2044	2041	
3031	0	2050	2049	2041	2046	
3032	0	2049	2046	2049	2047	
3033	0	2048	2045	2040	2039	
3034	0	2053	2048	2048	2036	
3035	0	2054	2051	2049	2053	
3036	0	2057	2053	2052	2052	
3037	0	2059	2050	2049	2045	
3038	0	2054	2050	2046	2055	
3039	0	2054	2048	2053	2058	
3040	0	2056	2050	2054	2045	
3041	0	2054	2052	2037	2039	
3042	0	2050	2049	2049	2055	
3043	0	2049	2047	2051	2052	
3044	0	2046	2042	2053	2044	
3045	0	2046	2044	2048	2040	
3046	0	2046	2044	2038	2053	
3047	0	2039	2045	2045	2051	
3048	0	2039	2039	2042	2047	
3049	0	2040	2040	2052	2036	
3050	0	2047	2044	2058	2042	
3051	0	2044	2042	2049	2052	
3052	0	2048	2045	2049	2049	
3053	0	2052	2046	2040	2038	
3054	0	2052	2048	2051	2035	
3055	0	2052	2048	2049	2052	
3056	0	2053	2046	2050	2052	
3057	0	2058	2049	2056	2040	
3058	0	2054	2052	2044	2040	
3059	0	2052	2048	2056	2055	
3060	0	2050	2046	2055	2056	
3061	0	2050	2046	2050	2046	
3062	0	2052	2050	2046	2056	
3063	0	2048	2046	2035	2068	
3064	0	2047	2046	2040	2059	
3065	0	2043	2048	2038	2046	
3066	0	2047	2041	2042	2043	
3067	0	2045	2042	2039	2040	
3068	0	2048	2048	2040	2043	
3069	0	2044	2050	2047	2047	
3070	0	2043	2048	2052	2050	
3071	0	2046	2051	2047	2046	
3072	0	2046	2048	2039	2036	
3073	0	2048	2052	2054	2037	
3074	0	2056	2053	2055	2051	
3075	0	2050	2052	2054	2052	
3076	0	2053	2051	2047	2036	
3077	0	2051	2051	2043	2048	
3078	0	2052	2050	2058	2052	
3079	0	2054	2048	2056	2051	
3080	0	2053	2050	2053	2040	
3081	0	2053	2057	2056	2044	
3082	0	2052	2051	2046	2052	
3083	0	2049	2052	2048	2059	
3084	0	2055	2047	2036	2059	
3085	0	2047	2044	2047	2052	
3086	0	2043	2050	2046	2042	
3087	0	2047	2047	2047	2043	
3088	0	2042	2044	2043	2053	
3089	0	2044	2044	2039	2043	
3090	0	2045	2043	2045	2043	
3091	0	2045	2043	2039	2036	
3092	0	2048	2046	2046	2043	
3093	0	2050	2043	2044	2055	
3094	0	2049	2051	2053	2052	
3095	0	2050	2048	2054	2041	
3096	0	2056	2050	2044	2045	
3097	0	2056	2048	2051	2056	
3098	0	2057	2049	2054	2052	
3099	0	2056	2047	2058	2043	
3100	0	2056	2043	2057	2046	
3101	0	2051	2042	2050	2059	
3102	0	2046	2042	2046	2054	
3103	0	2046	2047	2037	2049	
3104	0	2044	2048	2050	2047	
3105	0	2046	2046	2048	2045	
3106	0	2043	2042	2050	2049	
3107	0	2042	2044	2050	2047	
3108	0	2046	2043	2036	2044	
3109	0	2045	2046	2041	2033	
3110	0	2045	2047	2045	2041	
3111	0	2047	2043	2049	2051	
3112	0	2047	2044	2040	2046	
3113	0	2051	2048	2036	2038	
3114	0	2055	2043	2047	2042	
3115	0	2055	2046	2051	2055	
3116	0	2054	2050	2044	2048	
3117	0	2058	2050	2053	2040	
3118	0	2057	2053	2057	2049	
3119	0	2052	2047	2053	2064	
3120	0	2054	2047	2049	2059	
3121	0	2055	2050	2045	2041	
3122	0	2052	2047	2051	2046	
3123	0	2049	2046	2051	2057	
3124	0	2045	2046	2049	2051	
3125	0	2046	2047	2043	2036	
3126	0	2043	2047	2041	2040	
3127	0	2044	2042	2040	2048	
3128	0	2042	2041	2038	2048	
3129	0	2048	2042	2053	2042	
3130	0	2046	2044	2044	2037	
3131	0	2044	2046	2049	2044	
3132	0	2046	2042	2050	2053	
3133	0	2045	2040	2045	2044	
3134	0	2048	2046	2049	2039	
3135	0	2048	2050	2042	2049	
3136	0	2054	2054	2060	2058	
3137	0	2054	2051	2051	2050	
3138	0	2055	2049	2056	2043	
3139	0	2056	2049	2055	2051	
3140	0	2056	2048	2058	2052	
3141	0	2056	2053	2050	2059	
3142	0	2057	2047	2055	2059	
3143	0	2051	2048	2048	2053	
3144	0	2049	2048	2038	2046	
3145	0	2050	2051	2042	2042	
3146	0	2049	2052	2031	2050	
3147	0	2050	2050	2041	2048	
3148	0	2041	2046	2034	2042	
3149	0	2042	2047	2048	2037	
3150	0	2045	2049	2051	2042	
3151	0	2046	2049	2040	2051	
3152	0	2045	2052	2046	2054	
3153	0	2046	2052	2047	2044	
3154	0	2049	2052	2052	2037	
3155	0	2046	2051	2052	2039	
3156	0	2049	2052	2045	2057	
3157	0	2054	2053	2050	2054	
3158	0	2056	2054	2049	2044	
3159	0	2057	2054	2059	2038	
3160	0	2056	2058	2058	2047	
3161	0	2052	2056	2055	2057	
3162	0	2049	2055	2052	2052	
3163	0	2051	2053	2039	2047	
3164	0	2046	2051	2048	2041	
3165	0	2046	2049	2046	2050	
3166	0	2050	2048	2050	2054	
3167	0	2045	2050	2050	2046	
3168	0	2044	2048	2046	2042	
3169	0	2046	2053	2042	2052	
3170	0	2046	2056	2039	2046	
3171	0	2048	2055	2049	2043	
3172	0	2049	2045	2044	2036	
3173	0	2050	2045	2051	2045	
3174	0	2051	2043	2052	2053	
3175	0	2051	2044	2041	2054	
3176	0	2054	2050	2055	2044	
3177	0	2056	2047	2047	2048	
3178	0	2055	2052	2050	2058	
3179	0	2050	2053	2051	2054	
3180	0	2052	2050	2048	2045	
3181	0	2051	2046	2048	2040	
3182	0	2050	2047	2040	2045	
3183	0	2051	2045	2049	2052	
3184	0	2048	2046	2052	2052	
3185	0	2052	2050	2048	2040	
3186	0	2049	2050	2051	2039	
3187	0	2043	2044	2043	2046	
3188	0	2044	2047	2050	2042	
3189	0	2046	2044	2048	2034	
3190	0	2050	2045	2054	2031	
3191	0	2046	2047	2053	2045	
3192	0	2048	2049	2043	2054	
3193	0	2051	2041	2044	2051	
3194	0	2052	2045	2044	2055	
3195	0	2048	2048	2051	2053	
3196	0	2051	2047	2045	2051	
3197	0	2054	2044	2053	2057	
3198	0	2051	2050	2051	2053	
3199	0	2053	2050	2050	2054	
3200	0	2051	2049	2050	2041	
3201	0	2049	2050	2041	2042	
3202	0	2047	2046	2051	2054	
3203	0	2047	2047	2050	2051	
3204	0	2050	2053	2046	2043	
3205	0	2051	2053	2051	2037	
3206	0	2045	2046	2038	2050	
3207	0	2048	2047	2045	2046	
3208	0	2044	2048	2046	2041	
3209	0	2040	2048	2044	2037	
3210	0	2045	2044	2045	2054	
3211	0	2051	2044	2044	2049	
3212	0	2047	2044	2052	2040	
3213	0	2049	2049	2047	2045	
3214	0	2050	2050	2042	2055	
3215	0	2052	2049	2046	2050	
3216	0	2055	2042	2045	2040	
3217	0	2054	2047	2061	2043	
3218	0	2054	2050	2061	2056	
3219	0	2053	2051	2056	2057	
3220	0	2054	2050	2050	2047	
3221	0	2050	2048	2045	2039	
3222	0	2054	2050	2050	2049	
3223	0	2050	2051	2048	2056	
3224	0	2050	2049	2051	2053	
3225	0	2047	2051	2051	2040	
3226	0	2047	2050	2044	2034	
3227	0	2042	2049	2041	2048	
3228	0	2041	2048	2037	2052	
3229	0	2049	2054	2043	2047	
3230	0	2047	2056	2041	2042	
3231	0	2045	2053	2055	2037	
3232	0	2051	2054	2038	2046	
3233	0	2052	2052	2044	2051	
3234	0	2053	2053	2044	2046	
3235	0	2051	2054	2047	2041	
3236	0	2054	2050	2052	2048	
3237	0	2050	2050	2054	2058	
3238	0	2052	2055	2056	2053	
3239	0	2052	2049	2051	2055	
3240	0	2051	2048	2051	2052	
3241	0	2052	2048	2040	2045	
3242	0	2052	2044	2050	2057	
3243	0	2050	2045	2045	2057	
3244	0	2044	2046	2049	2055	
3245	0	2048	2049	2051	2041	
3246	0	2047	2048	2041	2047	
3247	0	2047	2049	2044	2053	
3248	0	2043	2042	2032	2054	
3249	0	2045	2046	2046	2047	
3250	0	2048	2041	2041	2041	
3251	0	2051	2044	2049	2036	
3252	0	2052	2045	2043	2038	
3253	0	2050	2048	2047	2045	
3254	0	2050	2047	2046	2053	
3255	0	2046	2047	2051	2050	
3256	0	2050	2050	2055	2042	
3257	0	2056	2052	2052	2039	
3258	0	2051	2051	2048	2044	
3259	0	2051	2059	2043	2057	
3260	0	2051	2057	2047	2059	
3261	0	2048	2055	2046	2054	
3262	0	2051	2052	2054	2048	
3263	0	2052	2053	2052	2044	
3264	0	2049	2051	2037	2053	
3265	0	2047	2052	2052	2054	
3266	0	2050	2055	2055	2046	
3267	0	2048	2057	2042	2037	
3268	0	2043	2050	2045	2041	
3269	0	2048	2052	2046	2045	
3270	0	2046	2051	2042	2039	
3271	0	2043	2053	2045	2037	
3272	0	2044	2056	2043	2048	
3273	0	2044	2051	2048	2052	
3274	0	2055	2049	2041	2043	
3275	0	2054	2050	2050	2042	
3276	0	2054	2049	2049	2049	
3277	0	2053	2057	2057	2057	
3278	0	2057	2057	2056	2045	
3279	0	2055	2057	2053	2039	
3280	0	2058	2058	2054	2046	
3281	0	2052	2052	2049	2055	
3282	0	2052	2055	2043	2052	
3283	0	2048	2054	2034	2045	
3284	0	2049	2048	2049	2043	
3285	0	2046	2048	2047	2049	
3286	0	2041	2049	2051	2056	
3287	0	2045	2051	2053	2052	
3288	0	2040	2051	2038	2037	
3289	0	2040	2049	2043	2043	
3290	0	2046	2048	2036	2052	
3291	0	2049	2051	2045	2040	
3292	0	2048	2053	2051	2038	
3293	0	2050	2052	2040	2057	
3294	0	2048	2046	2049	2051	
3295	0	2050	2049	2049	2041	
3296	0	2053	2052	2043	2054	
3297	0	2057	2051	2053	2049	
3298	0	2056	2045	2050	2043	
3299	0	2052	2044	2050	2054	
3300	0	2054	2046	2055	2055	
3301	0	2053	2048	2040	2044	
3302	0	2052	2048	2051	2041	
3303	0	2051	2047	2052	2057	
3304	0	2049	2048	2051	2050	
3305	0	2049	2045	2046	2036	
3306	0	2044	2049	2044	2052	
3307	0	2045	2052	2049	2046	
3308	0	2049	2049	2046	2035	
3309	0	2044	2051	2033	2040	
3310	0	2044	2048	2049	2050	
3311	0	2049	2051	2046	2041	
3312	0	2049	2051	2047	2040	
3313	0	2049	2045	2054	2046	
3314	0	2052	2048	2051	2053	
3315	0	2049	2045	2049	2049	
3316	0	2050	2050	2042	2046	
3317	0	2054	2050	2050	2047	
3318	0	2056	2049	2046	2062	
3319	0	2053	2047	2057	2058	
3320	0	2053	2055	2055	2044	
3321	0	2050	2048	2053	2046	
3322	0	2051	2045	2054	2058	
3323	0	2050	2048	2041	2058	
3324	0	2048	2045	2050	2044	
3325	0	2050	2046	2046	2037	
3326	0	2044	2043	2052	2050	
3327	0	2042	2041	2049	2049	
3328	0	2039	2043	2043	2035	
3329	0	2048	2049	2041	2034	
3330	0	2044	2052	2038	2046	
3331	0	2045	2052	2045	2044	
3332	0	2046	2053	2041	2039	
3333	0	2050	2053	2045	2043	
3334	0	2052	2055	2050	2052	
3335	0	2052	2055	2043	2052	
3336	0	2054	2056	2049	2043	
3337	0	2055	2053	2050	2053	
3338	0	2052	2049	2053	2053	
3339	0	2049	2055	2056	2052	
3340	0	2058	2053	2054	2044	
3341	0	2054	2052	2051	2052	
3342	0	2049	2053	2042	2061	
3343	0	2051	2050	2053	2054	
3344	0	2046	2050	2048	2045	
3345	0	2049	2048	2055	2039	
3346	0	2047	2043	2057	2045	
3347	0	2045	2047	2050	2047	
3348	0	2043	2045	2042	2042	
3349	0	2042	2047	2030	2037	
3350	0	2042	2046	2047	2044	
3351	0	2045	2049	2041	2055	
3352	0	2044	2049	2048	2053	
3353	0	2049	2050	2051	2042	
3354	0	2054	2054	2040	2037	
3355	0	2056	2046	2042	2057	
3356	0	2056	2054	2038	2052	
3357	0	2054	2052	2054	2047	
3358	0	2054	2054	2046	2042	
3359	0	2053	2050	2052	2054	
3360	0	2054	2048	2056	2057	
3361	0	2053	2048	2053	2052	
3362	0	2052	2046	2054	2044	
3363	0	2049	2044	2038	2038	
3364	0	2048	2045	2049	2053	
3365	0	2048	2043	2044	2055	
3366	0	2046	2042	2050	2048	
3367	0	2044	2042	2046	2040	
3368	0	2046	2047	2045	2036	
3369	0	2046	2041	2050	2042	
3370	0	2045	2043	2041	2056	
3371	0	2047	2045	2050	2046	
3372	0	2051	2050	2044	2034	
3373	0	2049	2048	2053	2048	
3374	0	2045	2047	2048	2055	
3375	0	2047	2045	2051	2057	
3376	0	2054	2047	2056	2050	
3377	0	2056	2049	2058	2043	
3378	0	2054	2045	2051	2052	
3379	0	2054	2048	2044	2060	
3380	0	2052	2046	2055	2046	
3381	0	2053	2047	2052	2037	
3382	0	2053	2048	2047	2046	
3383	0	2048	2047	2052	2054	
3384	0	2048	2045	2039	2049	
3385	0	2050	2048	2044	2044	
3386	0	2048	2046	2032	2034	
3387	0	2048	2045	2040	2042	
3388	0	2044	2044	2037	2048	
3389	0	2048	2046	2046	2043	
3390	0	2047	2044	2048	2039	
3391	0	2045	2047	2038	2053	
3392	0	2046	2048	2053	2048	
3393	0	2047	2048	2056	2042	
3394	0	2050	2054	2046	2050	
3395	0	2045	2053	2047	2056	
3396	0	2048	2050	2046	2044	
3397	0	2053	2052	2053	2043	
3398	0	2055	2054	2057	2050	
3399	0	2052	2050	2053	2054	
3400	0	2053	2048	2055	2042	
3401	0	2053	2052	2052	2045	
3402	0	2051	2049	2052	2050	
3403	0	2050	2050	2050	2042	
3404	0	2050	2047	2036	2041	
3405	0	2047	2046	2046	2040	
3406	0	2043	2046	2046	2055	
3407	0	2044	2049	2046	2055	
3408	0	2040	2043	2042	2049	
3409	0	2046	2045	2033	2041	
3410	0	2048	2046	2050	2053	
3411	0	2046	2047	2051	2058	
3412	0	2044	2050	2051	2045	
3413	0	2049	2052	2053	2046	
3414	0	2046	2052	2039	2047	
3415	0	2050	2048	2049	2055	
3416	0	2052	2052	2054	2049	
3417	0	2055	2055	2054	2043	
3418	0	2054	2053	2058	2039	
3419	0	2056	2053	2054	2044	
3420	0	2057	2055	2050	2054	
3421	0	2054	2053	2038	2047	
3422	0	2052	2056	2049	2043	
3423	0	2050	2054	2038	2039	
3424	0	2049	2052	2050	2047	
3425	0	2052	2053	2047	2044	
3426	0	2048	2047	2032	2038	
3427	0	2045	2046	2035	2040	
3428	0	2044	2047	2039	2053	
3429	0	2045	2047	2054	2054	
3430	0	2045	2049	2053	2046	
3431	0	2050	2047	2048	2038	
3432	0	2048	2048	2049	2042	
3433	0	2044	2052	2043	2053	
3434	0	2048	2051	2049	2066	
3435	0	2047	2047	2051	2059	
3436	0	2051	2050	2050	2048	
3437	0	2051	2052	2058	2048	
3438	0	2049	2055	2056	2055	
3439	0	2055	2055	2057	2056	
3440	0	2056	2052	2044	2052	
3441	0	2055	2052	2047	2044	
3442	0	2057	2050	2048	2043	
3443	0	2049	2050	2053	2050	
3444	0	2047	2051	2051	2049	
3445	0	2047	2051	2048	2046	
3446	0	2047	2052	2043	2035	
3447	0	2046	2051	2036	2043	
3448	0	2038	2047	2039	2050	
3449	0	2041	2044	2034	2049	
3450	0	2043	2042	2049	2047	
3451	0	2047	2046	2049	2038	
3452	0	2044	2042	2046	2039	
3453	0	2047	2043	2053	2049	
3454	0	2050	2048	2049	2058	
3455	0	2048	2049	2045	2052	
3456	0	2049	2047	2041	2040	
3457	0	2052	2053	2054	2048	
3458	0	2053	2057	2054	2058	
3459	0	2055	2057	2043	2052	
3460	0	2054	2053	2055	2044	
3461	0	2055	2057	2058	2050	
3462	0	2053	2058	2051	2052	
3463	0	2050	2052	2056	2052	
3464	0	2051	2045	2051	2051	
3465	0	2054	2046	2051	2044	
3466	0	2043	2048	2037	2040	
3467	0	2041	2046	2045	2039	
3468	0	2045	2048	2043	2054	
3469	0	2042	2046	2047	2051	
3470	0	2045	2042	2047	2046	
3471	0	2045	2044	2043	2041	
3472	0	2048	2046	2042	2039	
3473	0	2047	2051	2037	2041	
3474	0	2049	2050	2047	2048	
3475	0	2052	2050	2040	2058	
3476	0	2052	2054	2050	2055	
3477	0	2057	2057	2047	2052	
3478	0	2052	2052	2048	2045	
3479	0	2054	2051	2047	2044	
3480	0	2052	2046	2055	2043	
3481	0	2054	2047	2050	2044	
3482	0	2051	2048	2054	2049	
3483	0	2049	2050	2046	2054	
3484	0	2047	2046	2053	2056	
3485	0	2050	2048	2042	2048	
3486	0	2048	2049	2045	2035	
3487	0	2046	2046	2037	2036	
3488	0	2046	2049	2049	2048	
3489	0	2046	2049	2046	2059	
3490	0	2047	2047	2053	2059	
3491	0	2047	2053	2048	2050	
3492	0	2043	2054	2052	2043	
3493	0	2043	2051	2052	2039	
3494	0	2043	2047	2050	2045	
3495	0	2048	2049	2047	2054	
3496	0	2049	2045	2050	2057	
3497	0	2053	2052	2057	2056	
3498	0	2052	2049	2049	2046	
3499	0	2054	2049	2045	2044	
3500	0	2056	2048	2038	2052	
3501	0	2054	2050	2053	2050	
3502	0	2056	2049	2055	2042	
3503	0	2053	2045	2054	2037	
3504	0	2048	2045	2048	2047	
3505	0	2049	2046	2045	2051	
3506	0	2044	2042	2048	2052	
3507	0	2046	2042	2044	2047	
3508	0	2044	2046	2051	2044	
3509	0	2043	2049	2047	2040	
3510	0	2044	2048	2050	2037	
3511	0	2050	2051	2049	2039	
3512	0	2050	2047	2051	2041	
3513	0	2049	2051	2052	2038	
3514	0	2052	2047	2045	2041	
3515	0	2051	2047	2056	2051	
3516	0	2053	2056	2044	2054	
3517	0	2056	2057	2057	2057	
3518	0	2051	2050	2053	2056	
3519	0	2053	2048	2041	2061	
3520	0	2051	2047	2045	2063	
3521	0	2050	2052	2046	2064	
3522	0	2052	2049	2050	2066	
3523	0	2053	2044	2046	2068	
3524	0	2046	2045	2049	2060	
3525	0	2047	2050	2049	2046	
3526	0	2048	2052	2050	2045	
3527	0	2043	2044	2045	2040	
3528	0	2043	2042	2051	2044	
3529	0	2042	2048	2052	2030	
3530	0	2044	2047	2049	2050	
3531	0	2043	2046	2036	2041	
3532	0	2047	2050	2052	2043	
3533	0	2052	2049	2055	2039	
3534	0	2051	2052	2050	2048	
3535	0	2055	2051	2053	2051	
3536	0	2056	2053	2053	2045	
3537	0	2054	2045	2047	2058	
3538	0	2057	2053	2042	2043	
3539	0	2052	2054	2048	2059	
3540	0	2054	2050	2051	2043	
3541	0	2053	2048	2051	2055	
3542	0	2053	2050	2048	2042	
3543	0	2050	2050	2054	2045	
3544	0	2047	2049	2046	2055	
3545	0	2048	2051	2040	2040	
3546	0	2046	2047	2047	2051	
3547	0	2041	2043	2044	2038	
3548	0	2044	2052	2044	2049	
3549	0	2042	2042	2042	2043	
3550	0	2044	2041	2053	2044	
3551	0	2048	2044	2053	2053	
3552	0	2051	2044	2041	2038	
3553	0	2052	2054	2044	2047	
3554	0	2055	2047	2045	2051	
3555	0	2051	2052	2043	2045	
3556	0	2050	2046	2056	2045	
3557	0	2054	2050	2057	2060	
3558	0	2053	2048	2057	2044	
3559	0	2054	2047	2056	2046	
3560	0	2049	2056	2046	2058	
3561	0	2048	2052	2043	2049	
3562	0	2051	2054	2045	2038	
3563	0	2049	2049	2046	2047	
3564	0	2047	2049	2045	2053	
3565	0	2051	2044	2050	2046	
3566	0	2046	2049	2045	2040	
3567	0	2046	2044	2042	2041	
3568	0	2044	2048	2046	2050	
3569	0	2047	2049	2050	2044	
3570	0	2048	2052	2049	2042	
3571	0	2042	2043	2049	2045	
3572	0	2046	2049	2045	2061	
3573	0	2050	2050	2055	2053	
3574	0	2054	2050	2055	2044	
3575	0	2050	2047	2053	2043	
3576	0	2054	2051	2053	2057	
3577	0	2057	2052	2049	2051	
3578	0	2057	2052	2053	2042	
3579	0	2056	2052	2055	2037	
3580	0	2051	2054	2052	2049	
3581	0	2050	2050	2051	2056	
3582	0	2050	2050	2041	2054	
3583	0	2050	2053	2048	2045	
3584	0	2046	2050	2045	2047	
3585	0	2046	2046	2048	2049	
3586	0	2045	2049	2047	2042	
3587	0	2043	2051	2039	2032	
3588	0	2045	2048	2043	2047	
3589	0	2045	2044	2040	2051	
3590	0	2047	2041	2050	2053	
3591	0	2047	2050	2053	2044	
3592	0	2050	2050	2051	2048	
3593	0	2050	2055	2054	2047	
3594	0	2056	2052	2047	2050	
3595	0	2055	2055	2051	2050	
3596	0	2053	2055	2046	2051	
3597	0	2056	2055	2054	2043	
3598	0	2052	2054	2046	2047	
3599	0	2054	2053	2053	2058	
3600	0	2052	2056	2049	2052	
3601	0	2051	2054	2055	2046	
3602	0	2051	2046	2044	2042	
3603	0	2047	2043	2049	2040	
3604	0	2050	2046	2043	2042	
3605	0	2047	2050	2045	2046	
3606	0	2044	2047	2045	2049	
3607	0	2042	2047	2039	2051	
3608	0	2041	2050	2042	2042	
3609	0	2042	2044	2036	2037	
3610	0	2047	2049	2052	2038	
3611	0	2052	2046	2047	2051	
3612	0	2052	2050	2056	2049	
3613	0	2050	2049	2057	2045	
3614	0	2049	2051	2056	2043	
3615	0	2048	2052	2055	2060	
3616	0	2053	2049	2047	2064	
3617	0	2054	2051	2054	2062	
3618	0	2057	2052	2054	2054	
3619	0	2054	2053	2056	2056	
3620	0	2055	2054	2058	2066	
3621	0	2052	2051	2055	2060	
3622	0	2050	2050	2051	2053	
3623	0	2048	2049	2045	2046	
3624	0	2045	2047	2053	2046	
3625	0	2050	2043	2050	2057	
3626	0	2048	2045	2053	2058	
3627	0	2044	2044	2051	2048	
3628	0	2048	2041	2051	2038	
3629	0	2046	2050	2044	2034	
3630	0	2042	2047	2046	2049	
3631	0	2049	2048	2035	2043	
3632	0	2053	2049	2043	2034	
3633	0	2047	2056	2036	2026	
3634	0	2047	2056	2041	2028	
3635	0	2045	2058	2037	2041	
3636	0	2049	2054	2044	2039	
3637	0	2050	2046	2048	2034	
3638	0	2054	2048	2048	2031	
3639	0	2054	2049	2048	2032	
3640	0	2046	2053	2038	2046	
3641	0	2044	2051	2033	2047	
3642	0	2051	2056	2038	2049	
3643	0	2045	2054	2043	2042	
3644	0	2047	2052	2035	2040	
3645	0	2046	2050	2042	2046	
3646	0	2045	2047	2035	2050	
3647	0	2040	2051	2038	2048	
3648	0	2040	2051	2033	2041	
3649	0	2046	2055	2049	2045	
3650	0	2044	2043	2048	2056	
3651	0	2043	2043	2053	2058	
3652	0	2048	2044	2043	2053	
3653	0	2053	2043	2056	2048	
3654	0	2053	2049	2040	2049	
3655	0	2050	2045	2051	2047	
3656	0	2048	2049	2044	2060	
3657	0	2051	2053	2057	2065	
3658	0	2051	2054	2046	2061	
3659	0	2056	2051	2057	2049	
3660	0	2055	2047	2057	2046	
3661	0	2053	2043	2053	2055	
3662	0	2057	2048	2056	2054	
3663	0	2055	2047	2054	2049	
3664	0	2057	2048	2054	2040	
3665	0	2050	2046	2046	2040	
3666	0	2046	2047	2044	2040	
3667	0	2050	2045	2033	2046	
3668	0	2049	2050	2042	2040	
3669	0	2046	2048	2038	2032	
3670	0	2044	2047	2051	2040	
3671	0	2043	2052	2046	2048	
3672	0	2045	2053	2049	2058	
3673	0	2048	2048	2053	2054	
3674	0	2048	2049	2054	2044	
3675	0	2052	2050	2057	2047	
3676	0	2053	2047	2049	2059	
3677	0	2051	2052	2050	2065	
3678	0	2050	2050	2044	2062	
3679	0	2053	2051	2051	2048	
3680	0	2058	2049	2042	2041	
3681	0	2057	2048	2047	2056	
3682	0	2051	2056	2040	2049	
3683	0	2053	2057	2054	2039	
3684	0	2046	2049	2048	2034	
3685	0	2049	2048	2050	2045	
3686	0	2044	2046	2049	2050	
3687	0	2042	2051	2048	2048	
3688	0	2045	2049	2053	2045	
3689	0	2049	2047	2052	2046	
3690	0	2046	2041	2049	2042	
3691	0	2044	2041	2048	2041	
3692	0	2048	2042	2047	2037	
3693	0	2052	2041	2043	2045	
3694	0	2049	2041	2052	2056	
3695	0	2047	2044	2047	2058	
3696	0	2052	2043	2054	2046	
3697	0	2052	2051	2055	2042	
3698	0	2055	2053	2048	2050	
3699	0	2057	2062	2048	2059	
3700	0	2056	2061	2038	2053	
3701	0	2052	2060	2052	2045	
3702	0	2049	2056	2046	2040	
3703	0	2048	2052	2047	2047	
3704	0	2049	2051	2048	2052	
3705	0	2050	2053	2042	2043	
3706	0	2046	2047	2041	2038	
3707	0	2043	2048	2036	2045	
3708	0	2042	2044	2046	2050	
3709	0	2045	2045	2043	2051	
3710	0	2051	2044	2045	2052	
3711	0	2048	2042	2048	2044	
3712	0	2048	2045	2053	2047	
3713	0	2052	2045	2052	2039	
3714	0	2052	2048	2050	2041	
3715	0	2049	2047	2050	2046	
3716	0	2053	2053	2057	2051	
3717	0	2056	2053	2058	2057	
3718	0	2051	2047	2055	2054	
3719	0	2056	2042	2054	2054	
3720	0	2052	2047	2046	2044	
3721	0	2054	2049	2054	2039	
3722	0	2050	2048	2050	2049	
3723	0	2052	2044	2053	2055	
3724	0	2051	2045	2051	2049	
3725	0	2046	2046	2038	2039	
3726	0	2047	2044	2047	2039	
3727	0	2045	2044	2041	2053	
3728	0	2044	2046	2045	2045	
3729	0	2046	2045	2049	2040	
3730	0	2042	2041	2039	2042	
3731	0	2044	2042	2048	2045	
3732	0	2048	2048	2044	2055	
3733	0	2046	2051	2046	2055	
3734	0	2044	2051	2041	2051	
3735	0	2055	2048	2050	2046	
3736	0	2052	2048	2044	2047	
3737	0	2059	2056	2057	2044	
3738	0	2053	2057	2047	2043	
3739	0	2059	2054	2053	2042	
3740	0	2054	2052	2049	2053	
3741	0	2052	2050	2049	2056	
3742	0	2048	2048	2045	2050	
3743	0	2049	2046	2046	2040	
3744	0	2046	2046	2047	2042	
3745	0	2044	2049	2052	2043	
3746	0	2048	2047	2050	2050	
3747	0	2046	2043	2046	2049	
3748	0	2046	2051	2047	2041	
3749	0	2048	2053	2042	2036	
3750	0	2049	2050	2047	2041	
3751	0	2043	2050	2039	2053	
3752	0	2046	2053	2049	2051	
3753	0	2048	2055	2050	2043	
3754	0	2054	2048	2043	2049	
3755	0	2057	2052	2051	2059	
3756	0	2053	2049	2048	2054	
3757	0	2054	2054	2056	2047	
3758	0	2055	2054	2055	2045	
3759	0	2054	2058	2044	2056	
3760	0	2051	2059	2046	2055	
3761	0	2051	2055	2040	2052	
3762	0	2050	2047	2046	2040	
3763	0	2050	2045	2046	2036	
3764	0	2051	2046	2051	2049	
3765	0	2050	2050	2051	2052	
3766	0	2050	2046	2046	2056	
3767	0	2045	2046	2050	2050	
3768	0	2048	2049	2046	2041	
3769	0	2044	2048	2040	2033	
3770	0	2044	2045	2040	2051	
3771	0	2042	2044	2048	2054	
3772	0	2045	2044	2053	2047	
3773	0	2049	2045	2056	2044	
3774	0	2050	2048	2053	2050	
3775	0	2050	2051	2042	2052	
3776	0	2054	2057	2047	2052	
3777	0	2058	2057	2038	2051	
3778	0	2054	2053	2052	2047	
3779	0	2055	2048	2050	2038	
3780	0	2054	2044	2054	2042	
3781	0	2053	2047	2050	2056	
3782	0	2048	2046	2042	2047	
3783	0	2046	2050	2047	2037	
3784	0	2050	2046	2041	2040	
3785	0	2048	2047	2049	2044	
3786	0	2047	2047	2043	2054	
3787	0	2045	2045	2051	2049	
3788	0	2046	2046	2051	2040	
3789	0	2046	2044	2038	2041	
3790	0	2044	2045	2044	2058	
3791	0	2043	2047	2039	2048	
3792	0	2042	2048	2048	2043	
3793	0	2046	2046	2048	2038	
3794	0	2053	2049	2055	2049	
3795	0	2054	2052	2053	2058	
3796	0	2053	2057	2052	2055	
3797	0	2056	2055	2058	2043	
3798	0	2054	2050	2044	2043	
3799	0	2051	2049	2050	2054	
3800	0	2056	2052	2049	2048	
3801	0	2055	2049	2052	2044	
3802	0	2052	2050	2051	2057	
3803	0	2048	2048	2046	2055	
3804	0	2048	2047	2052	2039	
3805	0	2047	2049	2056	2042	
3806	0	2044	2044	2046	2049	
3807	0	2045	2042	2048	2045	
3808	0	2044	2043	2050	2039	
3809	0	2046	2042	2047	2052	
3810	0	2048	2042	2044	2049	
3811	0	2041	2046	2039	2039	
3812	0	2046	2051	2051	2048	
3813	0	2049	2048	2050	2054	
3814	0	2049	2052	2051	2050	
3815	0	2050	2045	2046	2050	
3816	0	2050	2047	2043	2041	
3817	0	2056	2050	2044	2053	
3818	0	2053	2046	2043	2052	
3819	0	2054	2048	2046	2046	
3820	0	2051	2045	2042	2041	
3821	0	2052	2046	2049	2050	
3822	0	2055	2048	2047	2056	
3823	0	2049	2048	2038	2044	
3824	0	2047	2047	2048	2035	
3825	0	2053	2049	2042	2052	
3826	0	2049	2052	2052	2050	
3827	0	2042	2054	2052	2040	
3828	0	2042	2049	2052	2036	
3829	0	2044	2051	2048	2052	
3830	0	2047	2045	2041	2049	
3831	0	2044	2046	2053	2042	
3832	0	2045	2050	2051	2038	
3833	0	2050	2050	2051	2044	
3834	0	2052	2050	2057	2057	
3835	0	2054	2048	2053	2059	
3836	0	2056	2051	2057	2047	
3837	0	2054	2050	2051	2036	
3838	0	2054	2048	2048	2050	
3839	0	2056	2051	2035	2059	
3840	0	2050	2049	2044	2054	
3841	0	2053	2044	2043	2047	
3842	0	2054	2047	2052	2044	
3843	0	2051	2046	2047	2048	
3844	0	2047	2043	2048	2058	
3845	0	2044	2040	2049	2056	
3846	0	2042	2040	2041	2047	
3847	0	2040	2040	2046	2039	
3848	0	2045	2043	2038	2042	
3849	0	2048	2046	2050	2056	
3850	0	2046	2045	2051	2050	
3851	0	2047	2049	2051	2041	
3852	0	2048	2046	2049	2050	
3853	0	2051	2043	2044	2050	
3854	0	2051	2046	2051	2042	
3855	0	2051	2046	2049	2039	
3856	0	2049	2044	2041	2043	
3857	0	2056	2046	2052	2055	
3858	0	2051	2052	2046	2055	
3859	0	2054	2051	2050	2044	
3860	0	2054	2049	2046	2040	
3861	0	2053	2054	2040	2053	
3862	0	2052	2050	2053	2054	
3863	0	2050	2054	2045	2043	
3864	0	2052	2046	2050	2040	
3865	0	2045	2052	2043	2052	
3866	0	2042	2049	2034	2049	
3867	0	2045	2048	2044	2038	
3868	0	2045	2049	2050	2038	
3869	0	2047	2052	2044	2050	
3870	0	2046	2049	2045	2045	
3871	0	2048	2046	2036	2037	
3872	0	2049	2050	2051	2038	
3873	0	2050	2048	2049	2048	
3874	0	2052	2054	2049	2056	
3875	0	2047	2050	2049	2057	
3876	0	2052	2051	2056	2048	
3877	0	2053	2060	2056	2042	
3878	0	2050	2060	2042	2044	
3879	0	2053	2055	2051	2058	
3880	0	2051	2053	2045	2052	
3881	0	2047	2052	2053	2043	
3882	0	2047	2053	2047	2037	
3883	0	2043	2054	2045	2044	
3884	0	2044	2053	2050	2054	
3885	0	2047	2052	2039	2048	
3886	0	2048	2048	2044	2043	
3887	0	2050	2040	2038	2038	
3888	0	2051	2047	2048	2045	
3889	0	2045	2046	2046	2053	
3890	0	2048	2044	2049	2052	
3891	0	2046	2046	2044	2040	
3892	0	2047	2045	2038	2037	
3893	0	2052	2045	2051	2040	
3894	0	2053	2046	2044	2052	
3895	0	2051	2043	2051	2056	
3896	0	2052	2044	2051	2046	
3897	0	2054	2050	2047	2046	
3898	0	2055	2051	2055	2057	
3899	0	2056	2050	2053	2059	
3900	0	2058	2054	2057	2042	
3901	0	2056	2052	2056	2044	
3902	0	2049	2051	2050	2051	
3903	0	2047	2045	2047	2057	
3904	0	2048	2046	2038	2051	
3905	0	2048	2045	2046	2049	
3906	0	2046	2044	2032	2044	
3907	0	2042	2046	2037	2046	
3908	0	2042	2044	2040	2050	
3909	0	2049	2045	2046	2046	
3910	0	2046	2043	2047	2038	
3911	0	2049	2044	2053	2034	
3912	0	2047	2046	2046	2039	
3913	0	2048	2052	2051	2048	
3914	0	2051	2054	2049	2052	
3915	0	2048	2053	2054	2054	
3916	0	2048	2051	2054	2048	
3917	0	2045	2051	2044	2043	
3918	0	2046	2055	2048	2046	
3919	0	2048	2052	2037	2056	
3920	0	2051	2057	2048	2055	
3921	0	2056	2059	2047	2047	
3922	0	2054	2056	2057	2038	
3923	0	2056	2053	2057	2044	
3924	0	2055	2049	2056	2053	
3925	0	2050	2053	2060	2049	
3926	0	2051	2052	2055	2044	
3927	0	2044	2051	2041	2041	
3928	0	2044	2048	2034	2047	
3929	0	2042	2050	2045	2049	
3930	0	2043	2046	2051	2042	
3931	0	2047	2051	2046	2038	
3932	0	2050	2051	2046	2048	
3933	0	2052	2050	2033	2049	
3934	0	2051	2047	2049	2037	
3935	0	2050	2051	2054	2051	
3936	0	2055	2050	2050	2050	
3937	0	2058	2050	2054	2043	
3938	0	2055	2051	2042	2058	
3939	0	2054	2048	2054	2054	
3940	0	2050	2048	2053	2048	
3941	0	2053	2050	2052	2046	
3942	0	2052	2047	2057	2048	
3943	0	2051	2044	2046	2055	
3944	0	2046	2046	2048	2049	
3945	0	2047	2045	2042	2043	
3946	0	2047	2048	2049	2040	
3947	0	2041	2044	2037	2038	
3948	0	2042	2047	2046	2047	
3949	0	2042	2051	2047	2049	
3950	0	2048	2051	2049	2050	
3951	0	2046	2053	2047	2041	
3952	0	2052	2050	2049	2040	
3953	0	2053	2053	2046	2041	
3954	0	2049	2052	2037	2055	
3955	0	2048	2049	2053	2057	
3956	0	2049	2048	2057	2044	
3957	0	2055	2048	2046	2038	
3958	0	2054	2048	2052	2051	
3959	0	2056	2050	2048	2057	
3960	0	2050	2050	2050	2046	
3961	0	2053	2041	2054	2039	
3962	0	2054	2048	2044	2052	
3963	0	2048	2049	2047	2058	
3964	0	2049	2048	2049	2044	
3965	0	2045	2054	2053	2041	
3966	0	2048	2047	2050	2052	
3967	0	2046	2045	2039	2051	
3968	0	2042	2041	2040	2041	
3969	0	2040	2043	2032	2049	
3970	0	2038	2043	2045	2056	
3971	0	2044	2043	2046	2043	
3972	0	2047	2048	2053	2039	
3973	0	2047	2044	2055	2056	
3974	0	2051	2046	2043	2047	
3975	0	2051	2047	2052	2045	
3976	0	2056	2050	2045	2040	
3977	0	2055	2050	2054	2056	
3978	0	2053	2051	2050	2053	
3979	0	2059	2048	2052	2044	
3980	0	2052	2045	2056	2040	
3981	0	2054	2048	2051	2054	
3982	0	2051	2048	2051	2056	
3983	0	2049	2047	2048	2053	
3984	0	2050	2047	2053	2053	
3985	0	2048	2054	2050	2041	
3986	0	2048	2055	2052	2033	
3987	0	2044	2052	2047	2035	
3988	0	2040	2054	2044	2045	
3989	0	2042	2050	2040	2048	
3990	0	2039	2050	2044	2047	
3991	0	2048	2048	2050	2042	
3992	0	2051	2048	2045	2039	
3993	0	2053	2045	2040	2046	
3994	0	2051	2046	2046	2050	
3995	0	2051	2047	2043	2057	
3996	0	2054	2047	2052	2059	
3997	0	2052	2046	2047	2052	
3998	0	2056	2050	2060	2047	
3999	0	2056	2053	2057	2050	
4000	0	2051	2049	2056	2054	
4001	0	2052	2053	2057	2051	
4002	0	2050	2049	2048	2040	
4003	0	2050	2050	2040	2048	
4004	0	2046	2049	2035	2052	
4005	0	2045	2045	2040	2045	
4006	0	2044	2045	2038	2042	
4007	0	2041	2044	2043	2049	
4008	0	2045	2047	2044	2055	
4009	0	2046	2051	2040	2049	
4010	0	2045	2053	2045	2034	
4011	0	2049	2051	2043	2036	
4012	0	2051	2058	2048	2046	
4013	0	2049	2058	2044	2052	
4014	0	2053	2056	2054	2046	
4015	0	2053	2055	2051	2043	
4016	0	2050	2056	2052	2041	
4017	0	2052	2057	2056	2055	
4018	0	2056	2052	2054	2059	
4019	0	2056	2050	2048	2054	
4020	0	2055	2053	2041	2039	
4021	0	2054	2058	2052	2048	
4022	0	2054	2053	2049	2054	
4023	0	2052	2056	2051	2047	
4024	0	2050	2051	2050	2044	
4025	0	2042	2047	2036	2047	
4026	0	2040	2048	2039	2056	
4027	0	2041	2043	2032	2048	
4028	0	2046	2041	2047	2049	
4029	0	2042	2045	2045	2044	
4030	0	2045	2043	2047	2042	
4031	0	2042	2045	2045	2049	
4032	0	2046	2041	2053	2051	
4033	0	2048	2044	2056	2046	
4034	0	2051	2043	2054	2044	
4035	0	2052	2047	2058	2044	
4036	0	2056	2049	2054	2046	
4037	0	2058	2054	2053	2055	
4038	0	2060	2054	2050	2058	
4039	0	2055	2055	2050	2051	
4040	0	2052	2053	2040	2039	
4041	0	2052	2054	2053	2044	
4042	0	2051	2053	2054	2056	
4043	0	2047	2049	2049	2056	
4044	0	2045	2051	2052	2048	
4045	0	2046	2052	2040	2037	
4046	0	2040	2052	2042	2041	
4047	0	2045	2052	2035	2053	
4048	0	2044	2053	2046	2051	
4049	0	2047	2051	2045	2037	
4050	0	2050	2051	2050	2037	
4051	0	2046	2054	2050	2046	
4052	0	2055	2054	2051	2053	
4053	0	2049	2050	2048	2050	
4054	0	2047	2049	2036	2039	
4055	0	2049	2050	2047	2044	
4056	0	2051	2045	2041	2057	
4057	0	2058	2044	2057	2052	
4058	0	2053	2045	2041	2045	
4059	0	2055	2046	2056	2039	
4060	0	2051	2047	2054	2054	
4061	0	2051	2048	2053	2052	
4062	0	2047	2054	2041	2057	
4063	0	2048	2057	2052	2055	
4064	0	2048	2054	2051	2046	
4065	0	2047	2052	2050	2039	
4066	0	2048	2054	2044	2043	
4067	0	2043	2052	2035	2047	
4068	0	2045	2048	2041	2046	
4069	0	2048	2045	2033	2048	
4070	0	2045	2044	2048	2038	
4071	0	2044	2049	2038	2040	
4072	0	2046	2048	2050	2054	
4073	0	2050	2048	2044	2047	
4074	0	2046	2049	2052	2045	
4075	0	2048	2047	2052	2039	
4076	0	2052	2054	2050	2043	
4077	0	2054	2056	2054	2049	
4078	0	2052	2053	2054	2050	
4079	0	2055	2050	2058	2045	
4080	0	2056	2054	2053	2042	
4081	0	2052	2048	2051	2058	
4082	0	2053	2050	2052	2057	
4083	0	2052	2049	2046	2049	
4084	0	2047	2047	2037	2041	
4085	0	2050	2047	2050	2046	
4086	0	2047	2044	2050	2054	
4087	0	2047	2044	2048	2048	
4088	0	2043	2043	2052	2041	
4089	0	2046	2042	2047	2038	
4090	0	2043	2042	2055	2039	
4091	0	2043	2045	2047	2054	
4092	0	2046	2050	2047	2051	
4093	0	2048	2051	2030	2041	
4094	0	2053	2052	2043	2044	
4095	0	2051	2053	2042	2050	
4096	0	2054	2051	2054	2055	
4097	0	2053	2059	2055	2050	
4098	0	2056	2056	2052	2043	
4099	0	2054	2054	2056	2036	
4100	0	2051	2051	2057	2044	
4101	0	2051	2048	2056	2053	
4102	0	2052	2048	2051	2055	
4103	0	2050	2048	2047	2051	
4104	0	2049	2048	2037	2043	
4105	0	2049	2047	2045	2038	
4106	0	2048	2040	2036	2045	
4107	0	2043	2052	2046	2058	
4108	0	2044	2049	2046	2045	
4109	0	2046	2048	2053	2040	
4110	0	2046	2046	2055	2049	
4111	0	2043	2047	2038	2053	
4112	0	2045	2044	2049	2046	
4113	0	2048	2048	2049	2042	
4114	0	2056	2050	2054	2044	
4115	0	2055	2048	2059	2054	
4116	0	2057	2049	2054	2055	
4117	0	2053	2049	2045	2043	
4118	0	2053	2047	2039	2042	
4119	0	2050	2052	2050	2051	
4120	0	2048	2050	2048	2055	
4121	0	2049	2048	2048	2047	
4122	0	2048	2046	2053	2043	
4123	0	2048	2050	2042	2052	
4124	0	2048	2047	2047	2046	
4125	0	2048	2051	2035	2037	
4126	0	2044	2052	2048	2038	
4127	0	2046	2044	2050	2044	
4128	0	2048	2050	2046	2049	
4129	0	2044	2049	2043	2047	
4130	0	2048	2044	2035	2040	
4131	0	2048	2051	2042	2044	
4132	0	2047	2050	2039	2057	
4133	0	2050	2047	2051	2043	
4134	0	2053	2049	2045	2057	
4135	0	2053	2055	2044	2043	
4136	0	2053	2046	2044	2053	
4137	0	2051	2049	2054	2046	
4138	0	2049	2051	2044	2058	
4139	0	2053	2048	2053	2048	
4140	0	2053	2048	2053	2054	
4141	0	2049	2045	2055	2048	
4142	0	2053	2047	2057	2050	
4143	0	2051	2049	2057	2055	
4144	0	2051	2048	2057	2050	
4145	0	2046	2048	2057	2043	
4146	0	2047	2048	2052	2041	
4147	0	2045	2052	2052	2038	
4148	0	2046	2053	2049	2038	
4149	0	2047	2053	2044	2044	
4150	0	2051	2051	2033	2049	
4151	0	2048	2049	2041	2041	
4152	0	2052	2053	2041	2036	
