# OpenSignals Text File Format
# {"00:07:80:3B:46:6F": {"sensor": ["EMG", "EMG", "EMG", "EMG"], "device name": "00:07:80:3B:46:6F", "column": ["nSeq", "DI", "Direito Multi", "Esquerdo Multi", "Direito ES", "Esquerdo ES"], "sync interval": 2, "time": "12:47:53.551", "comments": "", "device connection": "BTH00:07:80:3B:46:6F", "channels": [1, 2, 3, 4], "date": "2016-9-26", "mode": 0, "digital IO": [0, 1], "firmware version": 514, "device": "bioplux", "position": 0, "sampling rate": 1000, "label": ["Direito Multi", "Esquerdo Multi", "Direito ES", "Esquerdo ES"], "resolution": [12, 12, 12, 12], "special": [{}, {}, {}, {}]}}
# EndOfHeader
0	0	2053	2049	2053	2063	
1	0	2051	2047	2039	2057	
2	0	2052	2058	2043	2044	
3	0	2053	2050	2045	2056	
4	0	2054	2050	2044	2051	
5	0	2054	2056	2041	2043	
6	0	2051	2048	2051	2053	
7	0	2050	2044	2047	2040	
8	0	2051	2054	2055	2049	
9	0	2051	2046	2048	2047	
10	0	2044	2049	2041	2043	
11	0	2041	2045	2053	2048	
12	0	2042	2045	2048	2041	
13	0	2047	2050	2051	2047	
14	0	2049	2048	2040	2044	
15	0	2049	2047	2046	2044	
16	0	2051	2053	2052	2053	
17	0	2051	2048	2055	2041	
18	0	2052	2045	2047	2050	
19	0	2056	2054	2054	2052	
20	0	2055	2050	2048	2042	
21	0	2056	2044	2058	2059	
22	0	2057	2056	2044	2046	
23	0	2056	2048	2053	2046	
24	0	2052	2048	2048	2052	
25	0	2048	2052	2049	2042	
26	0	2048	2049	2033	2056	
27	0	2045	2045	2048	2046	
28	0	2044	2055	2046	2046	
29	0	2047	2044	2049	2049	
30	0	2046	2045	2041	2042	
31	0	2044	2049	2034	2052	
32	0	2046	2043	2052	2039	
33	0	2047	2053	2047	2048	
34	0	2043	2049	2052	2033	
35	0	2041	2044	2034	2039	
36	0	2042	2052	2049	2055	
37	0	2048	2051	2048	2048	
38	0	2047	2043	2052	2048	
39	0	2056	2052	2044	2052	
40	0	2058	2052	2059	2043	
41	0	2056	2049	2057	2058	
42	0	2053	2055	2058	2048	
43	0	2054	2054	2042	2051	
44	0	2053	2049	2052	2062	
45	0	2049	2051	2046	2049	
46	0	2047	2052	2054	2045	
47	0	2047	2043	2038	2054	
48	0	2044	2050	2044	2034	
49	0	2042	2053	2033	2047	
50	0	2044	2042	2041	2047	
51	0	2045	2048	2032	2035	
52	0	2045	2048	2050	2052	
53	0	2044	2044	2049	2043	
54	0	2045	2049	2044	2053	
55	0	2049	2045	2047	2054	
56	0	2052	2042	2042	2043	
57	0	2054	2049	2055	2058	
58	0	2053	2049	2056	2048	
59	0	2054	2048	2062	2052	
60	0	2057	2057	2048	2051	
61	0	2057	2052	2058	2044	
62	0	2058	2050	2055	2056	
63	0	2055	2045	2056	2051	
64	0	2053	2053	2048	2040	
65	0	2049	2045	2053	2052	
66	0	2046	2049	2047	2045	
67	0	2044	2053	2045	2035	
68	0	2046	2056	2041	2052	
69	0	2052	2052	2048	2047	
70	0	2042	2056	2039	2034	
71	0	2046	2046	2049	2051	
72	0	2047	2041	2037	2040	
73	0	2044	2051	2050	2044	
74	0	2045	2048	2048	2053	
75	0	2046	2046	2054	2037	
76	0	2050	2051	2047	2053	
77	0	2050	2047	2044	2039	
78	0	2051	2050	2053	2054	
79	0	2050	2056	2048	2054	
80	0	2049	2051	2048	2044	
81	0	2052	2054	2039	2063	
82	0	2058	2050	2051	2045	
83	0	2053	2047	2043	2053	
84	0	2053	2056	2046	2053	
85	0	2051	2046	2039	2045	
86	0	2046	2045	2048	2055	
87	0	2048	2048	2046	2042	
88	0	2051	2049	2050	2038	
89	0	2048	2043	2045	2054	
90	0	2044	2049	2049	2043	
91	0	2045	2046	2051	2037	
92	0	2043	2042	2050	2045	
93	0	2044	2046	2046	2036	
94	0	2047	2047	2042	2042	
95	0	2047	2046	2046	2052	
96	0	2046	2048	2042	2047	
97	0	2050	2053	2046	2054	
98	0	2052	2049	2037	2046	
99	0	2051	2053	2044	2050	
100	0	2058	2049	2058	2050	
101	0	2057	2047	2057	2047	
102	0	2053	2054	2062	2061	
103	0	2057	2048	2045	2041	
104	0	2054	2049	2052	2059	
105	0	2051	2052	2059	2045	
106	0	2048	2047	2049	2047	
107	0	2051	2051	2049	2049	
108	0	2049	2053	2046	2036	
109	0	2045	2045	2039	2048	
110	0	2046	2053	2047	2042	
111	0	2039	2047	2040	2041	
112	0	2040	2041	2047	2051	
113	0	2044	2052	2036	2040	
114	0	2045	2044	2038	2050	
115	0	2050	2043	2051	2046	
116	0	2047	2051	2047	2044	
117	0	2050	2051	2052	2060	
118	0	2052	2054	2039	2044	
119	0	2058	2055	2057	2055	
120	0	2059	2049	2052	2050	
121	0	2057	2051	2055	2043	
122	0	2055	2059	2044	2056	
123	0	2057	2048	2055	2045	
124	0	2054	2052	2052	2060	
125	0	2051	2049	2047	2042	
126	0	2048	2044	2050	2045	
127	0	2050	2050	2040	2054	
128	0	2046	2043	2046	2036	
129	0	2043	2043	2046	2051	
130	0	2042	2045	2044	2036	
131	0	2043	2041	2035	2056	
132	0	2038	2049	2048	2043	
133	0	2041	2043	2043	2044	
134	0	2044	2044	2049	2052	
135	0	2045	2048	2038	2040	
136	0	2046	2052	2050	2055	
137	0	2050	2049	2047	2042	
138	0	2052	2055	2054	2040	
139	0	2052	2051	2045	2051	
140	0	2055	2050	2055	2039	
141	0	2057	2052	2055	2043	
142	0	2055	2044	2057	2053	
143	0	2051	2048	2040	2042	
144	0	2054	2047	2050	2066	
145	0	2051	2047	2046	2049	
146	0	2052	2058	2052	2041	
147	0	2053	2054	2041	2051	
148	0	2051	2048	2051	2044	
149	0	2049	2045	2051	2039	
150	0	2045	2044	2039	2043	
151	0	2041	2043	2048	2063	
152	0	2043	2044	2049	2038	
153	0	2049	2053	2049	2043	
154	0	2052	2054	2037	2048	
155	0	2051	2050	2046	2039	
156	0	2050	2056	2042	2051	
157	0	2046	2052	2044	2045	
158	0	2049	2043	2039	2051	
159	0	2050	2054	2055	2062	
160	0	2053	2053	2050	2049	
161	0	2053	2045	2055	2060	
162	0	2055	2056	2044	2048	
163	0	2055	2047	2053	2059	
164	0	2059	2050	2054	2047	
165	0	2054	2053	2049	2050	
166	0	2048	2046	2044	2051	
167	0	2048	2047	2051	2045	
168	0	2050	2045	2043	2042	
169	0	2051	2052	2053	2036	
170	0	2044	2046	2052	2053	
171	0	2046	2048	2048	2037	
172	0	2046	2048	2054	2045	
173	0	2045	2040	2044	2032	
174	0	2044	2048	2038	2046	
175	0	2047	2048	2048	2028	
176	0	2043	2047	2049	2028	
177	0	2044	2051	2047	2046	
178	0	2043	2044	2039	2057	
179	0	2055	2056	2043	2054	
180	0	2051	2051	2050	2058	
181	0	2050	2043	2049	2062	
182	0	2055	2045	2051	2055	
183	0	2054	2049	2040	2047	
184	0	2047	2048	2054	2051	
185	0	2051	2046	2057	2054	
186	0	2050	2048	2037	2047	
187	0	2045	2047	2047	2050	
188	0	2046	2044	2052	2047	
189	0	2043	2042	2040	2038	
190	0	2048	2046	2047	2029	
191	0	2048	2049	2041	2044	
192	0	2045	2053	2050	2048	
193	0	2047	2050	2055	2041	
194	0	2050	2049	2044	2033	
195	0	2050	2052	2052	2041	
196	0	2053	2058	2046	2061	
197	0	2050	2058	2050	2063	
198	0	2049	2048	2046	2045	
199	0	2050	2043	2039	2049	
200	0	2052	2045	2051	2056	
201	0	2054	2047	2048	2053	
202	0	2054	2054	2040	2042	
203	0	2056	2054	2054	2054	
204	0	2060	2052	2058	2058	
205	0	2054	2048	2040	2052	
206	0	2054	2043	2052	2037	
207	0	2048	2050	2051	2042	
208	0	2044	2059	2040	2051	
209	0	2045	2048	2043	2049	
210	0	2046	2043	2042	2043	
211	0	2044	2040	2040	2040	
212	0	2046	2048	2045	2041	
213	0	2043	2044	2036	2045	
214	0	2046	2048	2048	2041	
215	0	2046	2047	2044	2034	
216	0	2049	2050	2049	2046	
217	0	2048	2058	2053	2046	
218	0	2049	2052	2047	2043	
219	0	2053	2054	2048	2042	
220	0	2055	2053	2042	2044	
221	0	2054	2047	2052	2057	
222	0	2052	2041	2051	2056	
223	0	2052	2030	2048	2066	
224	0	2048	2043	2051	2063	
225	0	2051	2054	2045	2059	
226	0	2049	2052	2053	2058	
227	0	2049	2044	2052	2048	
228	0	2053	2046	2040	2058	
229	0	2047	2047	2048	2043	
230	0	2047	2056	2049	2033	
231	0	2044	2054	2034	2036	
232	0	2047	2052	2041	2033	
233	0	2046	2042	2046	2043	
234	0	2044	2046	2041	2047	
235	0	2051	2048	2050	2048	
236	0	2045	2053	2054	2039	
237	0	2050	2051	2044	2035	
238	0	2049	2048	2053	2038	
239	0	2058	2048	2052	2047	
240	0	2053	2054	2042	2054	
241	0	2055	2056	2055	2060	
242	0	2056	2046	2058	2060	
243	0	2054	2049	2047	2050	
244	0	2053	2049	2046	2046	
245	0	2055	2048	2049	2049	
246	0	2048	2044	2039	2049	
247	0	2044	2044	2043	2053	
248	0	2047	2055	2053	2052	
249	0	2045	2057	2051	2048	
250	0	2045	2053	2050	2050	
251	0	2046	2046	2041	2048	
252	0	2041	2041	2050	2043	
253	0	2041	2043	2051	2039	
254	0	2046	2044	2040	2035	
255	0	2047	2053	2046	2040	
256	0	2047	2052	2046	2045	
257	0	2050	2052	2054	2053	
258	0	2053	2047	2051	2060	
259	0	2053	2050	2039	2060	
260	0	2055	2051	2050	2053	
261	0	2048	2049	2049	2052	
262	0	2051	2048	2043	2043	
263	0	2058	2056	2048	2038	
264	0	2060	2053	2055	2043	
265	0	2048	2043	2052	2045	
266	0	2045	2043	2048	2054	
267	0	2047	2041	2040	2051	
268	0	2053	2052	2057	2051	
269	0	2051	2052	2049	2055	
270	0	2049	2054	2038	2054	
271	0	2040	2046	2043	2048	
272	0	2043	2051	2033	2043	
273	0	2048	2047	2046	2056	
274	0	2045	2044	2046	2056	
275	0	2045	2048	2034	2048	
276	0	2049	2051	2050	2047	
277	0	2049	2054	2053	2039	
278	0	2051	2049	2045	2043	
279	0	2055	2049	2050	2048	
280	0	2052	2044	2058	2055	
281	0	2055	2050	2056	2057	
282	0	2054	2048	2057	2057	
283	0	2054	2049	2044	2055	
284	0	2050	2053	2053	2057	
285	0	2051	2049	2051	2054	
286	0	2049	2044	2047	2053	
287	0	2047	2046	2045	2039	
288	0	2051	2050	2047	2034	
289	0	2047	2050	2046	2034	
290	0	2045	2054	2046	2035	
291	0	2044	2056	2036	2041	
292	0	2046	2052	2043	2038	
293	0	2044	2048	2041	2041	
294	0	2043	2044	2047	2048	
295	0	2044	2046	2050	2051	
296	0	2052	2047	2046	2054	
297	0	2054	2048	2050	2061	
298	0	2052	2048	2046	2059	
299	0	2054	2050	2053	2055	
300	0	2057	2055	2052	2052	
301	0	2049	2056	2042	2042	
302	0	2054	2048	2046	2044	
303	0	2055	2047	2049	2048	
304	0	2053	2046	2056	2044	
305	0	2053	2048	2062	2040	
306	0	2049	2047	2043	2043	
307	0	2048	2044	2042	2045	
308	0	2048	2043	2034	2042	
309	0	2047	2044	2045	2046	
310	0	2044	2045	2046	2045	
311	0	2039	2043	2041	2039	
312	0	2041	2048	2045	2037	
313	0	2040	2051	2037	2039	
314	0	2044	2054	2042	2038	
315	0	2048	2052	2037	2038	
316	0	2050	2056	2045	2038	
317	0	2052	2054	2044	2037	
318	0	2054	2053	2050	2039	
319	0	2055	2054	2049	2037	
320	0	2057	2050	2052	2039	
321	0	2053	2049	2056	2042	
322	0	2054	2047	2060	2047	
323	0	2052	2052	2057	2049	
324	0	2051	2056	2046	2057	
325	0	2048	2053	2059	2053	
326	0	2053	2048	2057	2052	
327	0	2052	2043	2057	2053	
328	0	2052	2044	2054	2051	
329	0	2048	2049	2042	2052	
330	0	2042	2048	2049	2047	
331	0	2044	2052	2045	2039	
332	0	2042	2048	2050	2038	
333	0	2044	2044	2044	2040	
334	0	2044	2041	2033	2041	
335	0	2047	2044	2045	2041	
336	0	2048	2049	2045	2045	
337	0	2050	2053	2053	2042	
338	0	2047	2054	2052	2054	
339	0	2050	2058	2047	2054	
340	0	2057	2047	2047	2058	
341	0	2058	2047	2041	2057	
342	0	2056	2049	2051	2056	
343	0	2054	2047	2050	2053	
344	0	2056	2053	2035	2047	
345	0	2050	2052	2043	2041	
346	0	2047	2048	2046	2038	
347	0	2049	2045	2047	2040	
348	0	2051	2049	2048	2054	
349	0	2048	2047	2045	2050	
350	0	2045	2043	2045	2042	
351	0	2044	2049	2049	2052	
352	0	2043	2048	2048	2047	
353	0	2041	2043	2047	2033	
354	0	2044	2047	2038	2056	
355	0	2045	2049	2045	2044	
356	0	2051	2049	2048	2037	
357	0	2049	2049	2044	2051	
358	0	2049	2053	2053	2045	
359	0	2050	2049	2050	2049	
360	0	2059	2047	2060	2050	
361	0	2060	2054	2055	2048	
362	0	2059	2056	2056	2046	
363	0	2056	2050	2054	2059	
364	0	2051	2048	2038	2051	
365	0	2054	2050	2050	2049	
366	0	2049	2046	2043	2059	
367	0	2047	2042	2053	2042	
368	0	2047	2053	2043	2052	
369	0	2046	2050	2045	2042	
370	0	2045	2052	2046	2032	
371	0	2046	2058	2037	2048	
372	0	2043	2050	2051	2046	
373	0	2049	2045	2052	2037	
374	0	2049	2053	2053	2055	
375	0	2044	2042	2039	2044	
376	0	2042	2042	2046	2048	
377	0	2046	2047	2045	2050	
378	0	2048	2049	2049	2042	
379	0	2052	2047	2042	2053	
380	0	2053	2055	2056	2048	
381	0	2056	2055	2053	2039	
382	0	2057	2051	2057	2050	
383	0	2056	2050	2051	2041	
384	0	2055	2050	2058	2050	
385	0	2055	2045	2054	2046	
386	0	2054	2050	2056	2044	
387	0	2048	2048	2040	2055	
388	0	2047	2044	2049	2047	
389	0	2048	2050	2044	2056	
390	0	2044	2043	2045	2045	
391	0	2044	2049	2035	2050	
392	0	2042	2048	2048	2048	
393	0	2044	2043	2046	2041	
394	0	2043	2047	2038	2056	
395	0	2045	2053	2044	2052	
396	0	2048	2053	2045	2046	
397	0	2046	2048	2045	2044	
398	0	2047	2047	2041	2046	
399	0	2054	2047	2056	2048	
400	0	2054	2046	2053	2044	
401	0	2050	2052	2044	2043	
402	0	2055	2051	2050	2047	
403	0	2053	2054	2051	2043	
404	0	2054	2052	2040	2045	
405	0	2053	2054	2049	2046	
406	0	2053	2051	2051	2046	
407	0	2054	2050	2052	2044	
408	0	2049	2044	2055	2038	
409	0	2046	2043	2040	2039	
410	0	2040	2042	2047	2051	
411	0	2041	2041	2049	2046	
412	0	2043	2043	2036	2050	
413	0	2044	2045	2042	2046	
414	0	2050	2050	2047	2048	
415	0	2049	2051	2053	2051	
416	0	2049	2058	2052	2050	
417	0	2049	2050	2039	2054	
418	0	2045	2050	2053	2057	
419	0	2050	2049	2054	2057	
420	0	2051	2046	2046	2053	
421	0	2053	2048	2047	2053	
422	0	2054	2051	2052	2049	
423	0	2050	2051	2046	2049	
424	0	2048	2057	2044	2048	
425	0	2051	2053	2048	2046	
426	0	2054	2049	2044	2047	
427	0	2050	2047	2051	2046	
428	0	2050	2050	2052	2036	
429	0	2050	2049	2048	2040	
430	0	2046	2043	2046	2053	
431	0	2046	2043	2051	2045	
432	0	2045	2042	2057	2036	
433	0	2049	2056	2050	2042	
434	0	2048	2051	2045	2049	
435	0	2047	2049	2048	2050	
436	0	2048	2047	2045	2049	
437	0	2048	2052	2048	2052	
438	0	2054	2052	2042	2054	
439	0	2055	2057	2048	2053	
440	0	2054	2052	2054	2055	
441	0	2054	2048	2051	2056	
442	0	2055	2045	2048	2052	
443	0	2053	2047	2053	2044	
444	0	2049	2048	2054	2039	
445	0	2053	2048	2052	2047	
446	0	2046	2041	2040	2045	
447	0	2048	2041	2052	2047	
448	0	2047	2055	2054	2051	
449	0	2045	2051	2040	2050	
450	0	2048	2052	2047	2051	
451	0	2047	2049	2043	2044	
452	0	2042	2044	2032	2038	
453	0	2043	2046	2043	2036	
454	0	2040	2048	2040	2041	
455	0	2044	2044	2040	2046	
456	0	2052	2049	2054	2046	
457	0	2054	2056	2048	2041	
458	0	2056	2058	2060	2052	
459	0	2057	2051	2056	2050	
460	0	2056	2048	2054	2056	
461	0	2054	2049	2059	2055	
462	0	2056	2047	2043	2056	
463	0	2058	2056	2052	2054	
464	0	2057	2050	2056	2055	
465	0	2054	2052	2054	2047	
466	0	2050	2051	2048	2036	
467	0	2047	2046	2038	2040	
468	0	2051	2048	2044	2039	
469	0	2045	2048	2036	2045	
470	0	2042	2044	2028	2056	
471	0	2037	2049	2039	2050	
472	0	2036	2046	2039	2048	
473	0	2040	2043	2049	2045	
474	0	2044	2047	2050	2045	
475	0	2049	2048	2049	2047	
476	0	2049	2050	2044	2048	
477	0	2047	2048	2050	2044	
478	0	2049	2050	2054	2043	
479	0	2054	2046	2055	2051	
480	0	2055	2043	2047	2056	
481	0	2057	2044	2053	2062	
482	0	2055	2050	2054	2060	
483	0	2057	2056	2043	2050	
484	0	2056	2048	2046	2045	
485	0	2055	2050	2050	2039	
486	0	2055	2055	2052	2042	
487	0	2047	2051	2054	2044	
488	0	2043	2052	2043	2040	
489	0	2041	2045	2047	2038	
490	0	2040	2050	2049	2050	
491	0	2041	2044	2054	2044	
492	0	2044	2041	2036	2041	
493	0	2046	2050	2049	2050	
494	0	2044	2047	2048	2039	
495	0	2049	2047	2049	2047	
496	0	2050	2053	2043	2053	
497	0	2053	2052	2051	2037	
498	0	2051	2048	2046	2052	
499	0	2054	2052	2052	2046	
500	0	2055	2051	2044	2048	
501	0	2054	2046	2053	2053	
502	0	2053	2055	2051	2041	
503	0	2057	2051	2048	2057	
504	0	2057	2045	2051	2055	
505	0	2052	2053	2051	2046	
506	0	2047	2052	2050	2057	
507	0	2043	2045	2043	2043	
508	0	2047	2052	2049	2036	
509	0	2049	2050	2048	2048	
510	0	2049	2046	2050	2049	
511	0	2046	2046	2036	2038	
512	0	2047	2051	2046	2052	
513	0	2044	2050	2045	2048	
514	0	2045	2040	2048	2041	
515	0	2046	2051	2048	2053	
516	0	2048	2050	2050	2044	
517	0	2053	2049	2053	2042	
518	0	2050	2053	2045	2058	
519	0	2052	2053	2053	2048	
520	0	2057	2047	2054	2060	
521	0	2057	2056	2047	2049	
522	0	2052	2050	2051	2049	
523	0	2051	2044	2042	2060	
524	0	2052	2050	2052	2044	
525	0	2050	2049	2037	2056	
526	0	2050	2046	2052	2049	
527	0	2048	2054	2037	2041	
528	0	2044	2046	2040	2051	
529	0	2042	2041	2046	2042	
530	0	2045	2040	2042	2038	
531	0	2043	2048	2051	2050	
532	0	2044	2046	2050	2041	
533	0	2047	2044	2051	2033	
534	0	2048	2056	2050	2047	
535	0	2050	2051	2050	2036	
536	0	2050	2050	2046	2053	
537	0	2055	2053	2059	2044	
538	0	2051	2048	2052	2054	
539	0	2053	2049	2047	2052	
540	0	2054	2051	2048	2045	
541	0	2052	2047	2046	2053	
542	0	2052	2051	2046	2045	
543	0	2055	2047	2049	2058	
544	0	2055	2049	2040	2043	
545	0	2051	2050	2053	2052	
546	0	2050	2048	2046	2043	
547	0	2046	2053	2048	2058	
548	0	2049	2049	2046	2037	
549	0	2046	2046	2047	2047	
550	0	2045	2051	2048	2044	
551	0	2043	2047	2051	2039	
552	0	2042	2043	2041	2050	
553	0	2043	2047	2048	2038	
554	0	2045	2048	2040	2054	
555	0	2049	2048	2048	2055	
556	0	2048	2054	2046	2042	
557	0	2052	2054	2052	2051	
558	0	2053	2049	2049	2048	
559	0	2055	2051	2052	2050	
560	0	2057	2049	2044	2054	
561	0	2059	2049	2053	2043	
562	0	2059	2055	2048	2055	
563	0	2057	2048	2057	2039	
564	0	2054	2047	2043	2057	
565	0	2056	2050	2056	2042	
566	0	2052	2047	2055	2055	
567	0	2048	2051	2058	2046	
568	0	2048	2045	2047	2039	
569	0	2041	2044	2048	2049	
570	0	2038	2049	2039	2037	
571	0	2037	2047	2032	2048	
572	0	2038	2047	2032	2053	
573	0	2044	2049	2033	2042	
574	0	2043	2046	2042	2052	
575	0	2045	2042	2038	2047	
576	0	2050	2051	2049	2041	
577	0	2048	2047	2055	2052	
578	0	2055	2051	2045	2050	
579	0	2054	2051	2053	2044	
580	0	2056	2051	2057	2061	
581	0	2056	2050	2057	2049	
582	0	2055	2051	2045	2047	
583	0	2053	2054	2055	2051	
584	0	2054	2047	2050	2045	
585	0	2050	2052	2053	2058	
586	0	2053	2052	2042	2045	
587	0	2047	2046	2048	2051	
588	0	2046	2052	2049	2050	
589	0	2050	2048	2044	2034	
590	0	2043	2043	2050	2054	
591	0	2045	2043	2047	2045	
592	0	2043	2052	2046	2039	
593	0	2041	2045	2045	2049	
594	0	2046	2041	2043	2040	
595	0	2044	2055	2045	2039	
596	0	2048	2048	2046	2057	
597	0	2047	2046	2049	2044	
598	0	2052	2050	2049	2048	
599	0	2054	2050	2042	2054	
600	0	2055	2047	2051	2042	
601	0	2055	2058	2048	2058	
602	0	2056	2048	2052	2049	
603	0	2060	2050	2051	2047	
604	0	2060	2051	2054	2058	
605	0	2052	2051	2052	2043	
606	0	2047	2050	2033	2048	
607	0	2044	2045	2043	2054	
608	0	2046	2054	2050	2039	
609	0	2039	2044	2041	2049	
610	0	2044	2043	2050	2048	
611	0	2043	2049	2048	2039	
612	0	2044	2044	2052	2048	
613	0	2047	2043	2041	2038	
614	0	2045	2048	2053	2049	
615	0	2048	2047	2051	2050	
616	0	2048	2050	2039	2040	
617	0	2050	2054	2051	2050	
618	0	2051	2047	2050	2047	
619	0	2053	2055	2053	2055	
620	0	2053	2052	2047	2050	
621	0	2056	2051	2057	2044	
622	0	2058	2052	2053	2056	
623	0	2053	2047	2047	2046	
624	0	2052	2046	2054	2052	
625	0	2050	2053	2052	2059	
626	0	2053	2051	2051	2045	
627	0	2048	2045	2041	2056	
628	0	2047	2052	2050	2034	
629	0	2046	2051	2050	2036	
630	0	2043	2049	2038	2042	
631	0	2042	2044	2035	2043	
632	0	2048	2044	2043	2044	
633	0	2043	2046	2045	2049	
634	0	2045	2045	2043	2053	
635	0	2045	2050	2045	2050	
636	0	2051	2054	2038	2055	
637	0	2049	2052	2044	2050	
638	0	2048	2047	2052	2048	
639	0	2051	2049	2042	2040	
640	0	2056	2051	2049	2039	
641	0	2058	2054	2054	2048	
642	0	2057	2054	2042	2050	
643	0	2059	2053	2052	2052	
644	0	2059	2051	2051	2054	
645	0	2055	2048	2045	2056	
646	0	2052	2050	2055	2055	
647	0	2052	2050	2045	2055	
648	0	2048	2049	2051	2049	
649	0	2044	2051	2046	2048	
650	0	2044	2051	2044	2047	
651	0	2045	2048	2049	2045	
652	0	2044	2044	2045	2039	
653	0	2043	2041	2056	2042	
654	0	2042	2043	2055	2049	
655	0	2047	2049	2046	2047	
656	0	2052	2051	2059	2055	
657	0	2050	2048	2060	2056	
658	0	2053	2048	2044	2062	
659	0	2055	2049	2054	2056	
660	0	2056	2047	2053	2059	
661	0	2054	2050	2053	2063	
662	0	2051	2050	2047	2055	
663	0	2049	2054	2040	2055	
664	0	2056	2052	2054	2052	
665	0	2054	2051	2055	2050	
666	0	2056	2044	2056	2052	
667	0	2049	2046	2055	2050	
668	0	2049	2046	2054	2049	
669	0	2050	2045	2048	2054	
670	0	2045	2051	2046	2054	
671	0	2048	2051	2052	2049	
672	0	2042	2043	2049	2047	
673	0	2043	2041	2044	2039	
674	0	2043	2043	2045	2036	
675	0	2041	2050	2043	2030	
676	0	2044	2054	2038	2026	
677	0	2046	2056	2029	2023	
678	0	2047	2047	2037	2028	
679	0	2048	2043	2039	2034	
680	0	2046	2049	2041	2039	
681	0	2052	2048	2034	2043	
682	0	2049	2053	2042	2046	
683	0	2052	2056	2037	2047	
684	0	2049	2049	2041	2047	
685	0	2045	2045	2042	2045	
686	0	2044	2047	2040	2039	
687	0	2044	2048	2038	2034	
688	0	2047	2053	2029	2042	
689	0	2045	2057	2041	2043	
690	0	2044	2047	2050	2052	
691	0	2045	2045	2051	2046	
692	0	2051	2050	2035	2035	
693	0	2052	2041	2054	2052	
694	0	2049	2044	2057	2043	
695	0	2051	2052	2058	2046	
696	0	2049	2046	2051	2061	
697	0	2049	2046	2059	2054	
698	0	2049	2052	2054	2054	
699	0	2054	2050	2043	2066	
700	0	2056	2050	2060	2053	
701	0	2056	2047	2047	2051	
702	0	2054	2052	2059	2056	
703	0	2055	2048	2046	2044	
704	0	2053	2055	2056	2054	
705	0	2053	2053	2050	2043	
706	0	2056	2047	2054	2053	
707	0	2055	2050	2050	2043	
708	0	2051	2049	2042	2052	
709	0	2047	2052	2045	2043	
710	0	2045	2048	2037	2044	
711	0	2042	2043	2053	2043	
712	0	2044	2051	2044	2033	
713	0	2045	2048	2052	2049	
714	0	2046	2051	2046	2038	
715	0	2045	2048	2052	2050	
716	0	2051	2045	2043	2044	
717	0	2053	2056	2051	2047	
718	0	2053	2046	2050	2055	
719	0	2052	2044	2054	2044	
720	0	2055	2056	2051	2062	
721	0	2055	2047	2056	2049	
722	0	2053	2049	2050	2060	
723	0	2054	2048	2042	2060	
724	0	2053	2049	2047	2053	
725	0	2053	2051	2049	2047	
726	0	2051	2052	2050	2045	
727	0	2047	2056	2047	2038	
728	0	2046	2052	2035	2040	
729	0	2040	2047	2050	2039	
730	0	2040	2038	2047	2036	
731	0	2041	2042	2040	2034	
732	0	2047	2045	2046	2036	
733	0	2048	2044	2041	2039	
734	0	2044	2049	2054	2041	
735	0	2048	2050	2052	2035	
736	0	2054	2055	2043	2039	
737	0	2053	2049	2054	2040	
738	0	2051	2045	2054	2045	
739	0	2053	2051	2042	2044	
740	0	2058	2051	2050	2054	
741	0	2058	2054	2045	2047	
742	0	2054	2051	2050	2053	
743	0	2056	2056	2045	2054	
744	0	2053	2048	2045	2053	
745	0	2054	2052	2050	2053	
746	0	2050	2049	2053	2054	
747	0	2052	2043	2041	2057	
748	0	2048	2045	2053	2051	
749	0	2043	2046	2050	2052	
750	0	2044	2047	2038	2054	
751	0	2043	2048	2052	2048	
752	0	2044	2044	2050	2050	
753	0	2040	2043	2037	2046	
754	0	2040	2039	2052	2047	
755	0	2049	2049	2052	2042	
756	0	2046	2049	2038	2039	
757	0	2047	2050	2048	2041	
758	0	2052	2050	2053	2041	
759	0	2054	2058	2046	2038	
760	0	2057	2056	2058	2040	
761	0	2055	2050	2052	2049	
762	0	2058	2052	2042	2054	
763	0	2059	2052	2053	2052	
764	0	2054	2055	2053	2046	
765	0	2053	2054	2048	2042	
766	0	2051	2048	2052	2041	
767	0	2048	2045	2046	2040	
768	0	2049	2047	2045	2045	
769	0	2047	2042	2050	2048	
770	0	2039	2046	2043	2050	
771	0	2042	2047	2039	2054	
772	0	2043	2049	2045	2056	
773	0	2044	2044	2043	2049	
774	0	2043	2039	2034	2053	
775	0	2046	2041	2049	2055	
776	0	2048	2051	2052	2054	
777	0	2052	2056	2044	2048	
778	0	2055	2056	2057	2047	
779	0	2056	2051	2053	2048	
780	0	2053	2052	2042	2042	
781	0	2057	2054	2053	2046	
782	0	2046	2056	2047	2050	
783	0	2050	2050	2046	2056	
784	0	2048	2046	2040	2054	
785	0	2049	2046	2046	2058	
786	0	2046	2047	2054	2055	
787	0	2045	2044	2039	2054	
788	0	2049	2045	2050	2049	
789	0	2048	2051	2052	2037	
790	0	2045	2045	2041	2038	
791	0	2044	2046	2057	2042	
792	0	2049	2047	2051	2045	
793	0	2047	2051	2038	2049	
794	0	2047	2056	2052	2054	
795	0	2046	2056	2048	2050	
796	0	2050	2048	2044	2050	
797	0	2052	2048	2059	2038	
798	0	2049	2051	2052	2039	
799	0	2048	2050	2039	2047	
800	0	2049	2053	2049	2050	
801	0	2054	2051	2044	2043	
802	0	2055	2046	2046	2060	
803	0	2055	2051	2050	2047	
804	0	2058	2054	2050	2044	
805	0	2050	2049	2048	2051	
806	0	2046	2054	2041	2036	
807	0	2045	2047	2046	2051	
808	0	2049	2045	2049	2045	
809	0	2046	2048	2038	2036	
810	0	2045	2049	2048	2051	
811	0	2043	2045	2054	2043	
812	0	2049	2043	2054	2042	
813	0	2047	2049	2039	2056	
814	0	2050	2044	2048	2046	
815	0	2051	2045	2047	2051	
816	0	2052	2053	2043	2054	
817	0	2051	2052	2046	2046	
818	0	2050	2046	2048	2062	
819	0	2046	2051	2051	2049	
820	0	2054	2050	2035	2042	
821	0	2055	2051	2045	2055	
822	0	2054	2050	2042	2045	
823	0	2054	2052	2049	2050	
824	0	2057	2048	2049	2051	
825	0	2050	2050	2054	2039	
826	0	2051	2054	2049	2052	
827	0	2051	2047	2051	2051	
828	0	2047	2048	2050	2036	
829	0	2046	2050	2052	2050	
830	0	2043	2048	2048	2040	
831	0	2042	2046	2040	2036	
832	0	2044	2045	2051	2054	
833	0	2041	2052	2049	2050	
834	0	2048	2046	2034	2041	
835	0	2047	2046	2046	2048	
836	0	2047	2055	2049	2046	
837	0	2050	2047	2050	2044	
838	0	2053	2046	2058	2057	
839	0	2054	2052	2048	2044	
840	0	2057	2048	2061	2046	
841	0	2053	2048	2053	2055	
842	0	2050	2052	2051	2045	
843	0	2050	2049	2037	2065	
844	0	2052	2049	2048	2049	
845	0	2048	2054	2044	2042	
846	0	2051	2051	2048	2050	
847	0	2048	2048	2040	2040	
848	0	2047	2057	2047	2042	
849	0	2046	2048	2043	2046	
850	0	2047	2039	2046	2035	
851	0	2040	2043	2044	2049	
852	0	2043	2052	2049	2050	
853	0	2044	2046	2053	2037	
854	0	2047	2045	2040	2051	
855	0	2045	2052	2049	2051	
856	0	2047	2044	2053	2052	
857	0	2051	2049	2042	2044	
858	0	2056	2046	2050	2061	
859	0	2054	2051	2056	2055	
860	0	2054	2054	2043	2047	
861	0	2054	2048	2053	2060	
862	0	2056	2050	2053	2048	
863	0	2054	2058	2053	2042	
864	0	2058	2058	2054	2055	
865	0	2054	2052	2049	2052	
866	0	2050	2049	2053	2039	
867	0	2043	2057	2041	2053	
868	0	2043	2051	2048	2037	
869	0	2045	2045	2043	2042	
870	0	2043	2043	2042	2049	
871	0	2042	2045	2038	2038	
872	0	2045	2040	2052	2050	
873	0	2045	2039	2051	2053	
874	0	2045	2046	2037	2035	
875	0	2044	2046	2045	2053	
876	0	2052	2048	2044	2046	
877	0	2053	2049	2051	2044	
878	0	2054	2054	2037	2057	
879	0	2051	2052	2053	2047	
880	0	2051	2050	2054	2053	
881	0	2057	2050	2043	2052	
882	0	2054	2054	2053	2050	
883	0	2055	2050	2051	2054	
884	0	2055	2048	2055	2051	
885	0	2055	2054	2042	2040	
886	0	2051	2047	2049	2047	
887	0	2050	2054	2045	2034	
888	0	2048	2053	2050	2037	
889	0	2045	2045	2043	2046	
890	0	2046	2051	2053	2047	
891	0	2043	2045	2050	2055	
892	0	2041	2044	2052	2049	
893	0	2046	2049	2044	2055	
894	0	2042	2046	2045	2043	
895	0	2042	2040	2051	2034	
896	0	2045	2051	2043	2049	
897	0	2047	2048	2050	2037	
898	0	2051	2042	2037	2055	
899	0	2049	2047	2053	2049	
900	0	2056	2052	2050	2042	
901	0	2054	2043	2053	2056	
902	0	2058	2048	2049	2057	
903	0	2054	2056	2057	2044	
904	0	2053	2054	2054	2058	
905	0	2058	2056	2057	2047	
906	0	2056	2059	2044	2055	
907	0	2051	2049	2050	2050	
908	0	2046	2048	2044	2037	
909	0	2041	2048	2047	2057	
910	0	2036	2045	2030	2042	
911	0	2038	2042	2039	2052	
912	0	2044	2049	2035	2038	
913	0	2044	2047	2041	2044	
914	0	2047	2046	2039	2051	
915	0	2049	2048	2045	2040	
916	0	2050	2048	2059	2047	
917	0	2051	2054	2054	2036	
918	0	2052	2048	2054	2054	
919	0	2055	2046	2045	2054	
920	0	2056	2053	2056	2044	
921	0	2058	2049	2056	2063	
922	0	2058	2047	2056	2049	
923	0	2056	2049	2055	2042	
924	0	2052	2056	2054	2057	
925	0	2054	2052	2055	2052	
926	0	2054	2047	2038	2038	
927	0	2051	2049	2045	2052	
928	0	2043	2051	2049	2042	
929	0	2045	2042	2048	2044	
930	0	2041	2040	2036	2054	
931	0	2044	2048	2049	2042	
932	0	2042	2044	2045	2049	
933	0	2043	2043	2050	2044	
934	0	2046	2052	2036	2035	
935	0	2048	2050	2045	2053	
936	0	2046	2044	2041	2060	
937	0	2045	2046	2036	2048	
938	0	2050	2053	2048	2040	
939	0	2053	2046	2049	2054	
940	0	2051	2045	2059	2048	
941	0	2053	2055	2041	2044	
942	0	2053	2054	2054	2058	
943	0	2057	2049	2054	2045	
944	0	2052	2056	2048	2050	
945	0	2052	2052	2052	2058	
946	0	2053	2047	2043	2045	
947	0	2051	2052	2051	2050	
948	0	2045	2050	2050	2047	
949	0	2048	2046	2052	2039	
950	0	2047	2047	2044	2050	
951	0	2047	2045	2043	2042	
952	0	2043	2043	2042	2033	
953	0	2046	2050	2042	2050	
954	0	2047	2045	2045	2040	
955	0	2045	2048	2032	2040	
956	0	2044	2053	2046	2051	
957	0	2043	2049	2044	2039	
958	0	2044	2046	2044	2056	
959	0	2049	2052	2041	2049	
960	0	2052	2050	2052	2042	
961	0	2055	2051	2053	2058	
962	0	2056	2056	2049	2042	
963	0	2055	2049	2057	2053	
964	0	2055	2053	2046	2052	
965	0	2055	2057	2057	2038	
966	0	2053	2048	2059	2053	
967	0	2051	2045	2055	2044	
968	0	2049	2051	2038	2040	
969	0	2045	2046	2041	2050	
970	0	2041	2042	2040	2042	
971	0	2041	2044	2049	2047	
972	0	2045	2046	2037	2048	
973	0	2044	2041	2046	2040	
974	0	2048	2043	2044	2050	
975	0	2050	2049	2047	2043	
976	0	2053	2048	2036	2034	
977	0	2050	2049	2047	2052	
978	0	2048	2053	2052	2050	
979	0	2051	2048	2052	2042	
980	0	2055	2048	2045	2059	
981	0	2051	2055	2048	2060	
982	0	2060	2052	2058	2049	
983	0	2063	2053	2061	2054	
984	0	2057	2058	2059	2058	
985	0	2056	2053	2047	2041	
986	0	2050	2042	2054	2053	
987	0	2050	2053	2052	2050	
988	0	2044	2051	2052	2037	
989	0	2045	2047	2045	2049	
990	0	2042	2052	2050	2043	
991	0	2044	2043	2042	2040	
992	0	2041	2045	2042	2053	
993	0	2040	2047	2029	2048	
994	0	2042	2043	2038	2036	
995	0	2043	2048	2036	2048	
996	0	2044	2046	2042	2044	
997	0	2051	2054	2050	2038	
998	0	2054	2051	2054	2055	
999	0	2055	2048	2063	2048	
1000	0	2055	2061	2055	2042	
1001	0	2058	2051	2048	2057	
1002	0	2056	2049	2055	2049	
1003	0	2055	2056	2046	2046	
1004	0	2050	2052	2051	2055	
1005	0	2052	2045	2040	2043	
1006	0	2051	2047	2051	2057	
1007	0	2048	2045	2053	2045	
1008	0	2050	2047	2053	2049	
1009	0	2048	2054	2035	2048	
1010	0	2044	2045	2044	2038	
1011	0	2043	2043	2048	2053	
1012	0	2043	2051	2047	2041	
1013	0	2044	2050	2039	2045	
1014	0	2045	2045	2048	2048	
1015	0	2048	2045	2047	2041	
1016	0	2050	2047	2040	2053	
1017	0	2046	2052	2049	2051	
1018	0	2052	2052	2052	2042	
1019	0	2058	2048	2045	2040	
1020	0	2057	2047	2056	2046	
1021	0	2052	2052	2053	2053	
1022	0	2055	2059	2040	2046	
1023	0	2051	2056	2047	2043	
1024	0	2056	2051	2045	2053	
1025	0	2053	2049	2048	2044	
1026	0	2051	2050	2046	2038	
1027	0	2046	2050	2051	2056	
1028	0	2047	2045	2055	2050	
1029	0	2041	2043	2041	2038	
1030	0	2045	2043	2046	2042	
1031	0	2041	2045	2043	2053	
1032	0	2045	2045	2044	2040	
1033	0	2045	2042	2051	2046	
1034	0	2046	2043	2047	2064	
1035	0	2048	2053	2053	2052	
1036	0	2049	2054	2042	2042	
1037	0	2053	2048	2053	2042	
1038	0	2051	2044	2047	2059	
1039	0	2053	2051	2052	2059	
1040	0	2054	2057	2049	2046	
1041	0	2055	2051	2043	2046	
1042	0	2056	2052	2053	2063	
1043	0	2055	2048	2054	2052	
1044	0	2053	2052	2041	2045	
1045	0	2055	2052	2048	2043	
1046	0	2050	2045	2053	2054	
1047	0	2046	2044	2041	2052	
1048	0	2048	2050	2053	2040	
1049	0	2048	2050	2050	2043	
1050	0	2043	2046	2036	2051	
1051	0	2042	2043	2050	2038	
1052	0	2040	2051	2051	2035	
1053	0	2042	2049	2039	2044	
1054	0	2044	2044	2051	2042	
1055	0	2044	2045	2050	2041	
1056	0	2048	2053	2039	2054	
1057	0	2051	2050	2049	2051	
1058	0	2051	2045	2051	2042	
1059	0	2058	2052	2040	2052	
1060	0	2052	2059	2055	2056	
1061	0	2056	2055	2061	2049	
1062	0	2056	2052	2045	2044	
1063	0	2055	2046	2056	2052	
1064	0	2053	2051	2057	2057	
1065	0	2054	2051	2041	2049	
1066	0	2049	2045	2048	2044	
1067	0	2051	2046	2052	2055	
1068	0	2051	2052	2042	2035	
1069	0	2045	2047	2052	2036	
1070	0	2041	2045	2044	2048	
1071	0	2045	2047	2033	2037	
1072	0	2045	2048	2048	2039	
1073	0	2046	2044	2051	2051	
1074	0	2043	2044	2039	2046	
1075	0	2043	2054	2046	2039	
1076	0	2047	2047	2043	2053	
1077	0	2044	2047	2036	2049	
1078	0	2044	2047	2046	2047	
1079	0	2047	2052	2046	2061	
1080	0	2054	2047	2059	2053	
1081	0	2057	2051	2049	2040	
1082	0	2058	2058	2057	2058	
1083	0	2056	2044	2051	2049	
1084	0	2054	2049	2056	2049	
1085	0	2054	2053	2038	2056	
1086	0	2052	2048	2051	2049	
1087	0	2052	2057	2052	2054	
1088	0	2051	2052	2048	2037	
1089	0	2047	2046	2053	2046	
1090	0	2045	2051	2039	2037	
1091	0	2044	2045	2044	2048	
1092	0	2042	2045	2047	2038	
1093	0	2043	2044	2049	2055	
1094	0	2045	2038	2042	2041	
1095	0	2046	2048	2047	2050	
1096	0	2048	2048	2049	2051	
1097	0	2049	2044	2052	2041	
1098	0	2049	2051	2037	2053	
1099	0	2054	2052	2051	2046	
1100	0	2054	2049	2057	2038	
1101	0	2059	2051	2042	2051	
1102	0	2054	2060	2055	2053	
1103	0	2056	2055	2056	2046	
1104	0	2053	2053	2042	2053	
1105	0	2051	2051	2053	2056	
1106	0	2050	2051	2054	2046	
1107	0	2053	2048	2051	2041	
1108	0	2046	2046	2049	2051	
1109	0	2046	2042	2044	2049	
1110	0	2042	2044	2047	2042	
1111	0	2043	2050	2040	2040	
1112	0	2046	2046	2036	2052	
1113	0	2046	2044	2046	2052	
1114	0	2049	2041	2045	2041	
1115	0	2044	2049	2038	2039	
1116	0	2049	2048	2046	2055	
1117	0	2047	2047	2041	2042	
1118	0	2047	2047	2037	2040	
1119	0	2047	2053	2051	2055	
1120	0	2055	2051	2051	2055	
1121	0	2053	2049	2041	2046	
1122	0	2056	2053	2053	2056	
1123	0	2057	2059	2056	2056	
1124	0	2057	2052	2041	2046	
1125	0	2053	2047	2053	2041	
1126	0	2052	2045	2050	2052	
1127	0	2050	2051	2043	2049	
1128	0	2050	2053	2051	2034	
1129	0	2048	2051	2057	2042	
1130	0	2044	2046	2043	2054	
1131	0	2043	2045	2046	2043	
1132	0	2041	2048	2051	2037	
1133	0	2046	2046	2046	2046	
1134	0	2042	2044	2045	2054	
1135	0	2044	2042	2052	2047	
1136	0	2047	2047	2050	2044	
1137	0	2049	2049	2046	2057	
1138	0	2050	2048	2043	2054	
1139	0	2050	2044	2048	2044	
1140	0	2053	2052	2048	2055	
1141	0	2055	2054	2046	2048	
1142	0	2054	2055	2058	2046	
1143	0	2060	2047	2049	2041	
1144	0	2057	2047	2043	2050	
1145	0	2051	2049	2054	2057	
1146	0	2050	2050	2050	2047	
1147	0	2045	2045	2034	2035	
1148	0	2045	2042	2046	2052	
1149	0	2044	2047	2042	2048	
1150	0	2045	2047	2034	2036	
1151	0	2046	2046	2048	2038	
1152	0	2047	2052	2052	2047	
1153	0	2043	2053	2038	2040	
1154	0	2042	2055	2048	2036	
1155	0	2046	2052	2051	2040	
1156	0	2049	2051	2040	2054	
1157	0	2051	2046	2052	2046	
1158	0	2049	2051	2053	2047	
1159	0	2053	2053	2055	2058	
1160	0	2057	2053	2052	2055	
1161	0	2059	2054	2045	2045	
1162	0	2056	2048	2052	2046	
1163	0	2054	2053	2054	2060	
1164	0	2049	2050	2041	2049	
1165	0	2047	2046	2048	2047	
1166	0	2050	2043	2043	2061	
1167	0	2048	2047	2041	2056	
1168	0	2045	2047	2049	2035	
1169	0	2045	2050	2052	2046	
1170	0	2046	2046	2041	2046	
1171	0	2042	2044	2046	2039	
1172	0	2043	2053	2047	2037	
1173	0	2044	2045	2048	2048	
1174	0	2045	2046	2042	2048	
1175	0	2045	2044	2042	2043	
1176	0	2048	2050	2053	2046	
1177	0	2054	2050	2044	2055	
1178	0	2050	2050	2047	2044	
1179	0	2053	2050	2049	2051	
1180	0	2056	2060	2053	2057	
1181	0	2055	2054	2055	2046	
1182	0	2053	2049	2043	2053	
1183	0	2054	2054	2050	2058	
1184	0	2053	2049	2054	2047	
1185	0	2053	2047	2042	2041	
1186	0	2047	2043	2050	2057	
1187	0	2045	2047	2046	2048	
1188	0	2044	2046	2038	2038	
1189	0	2045	2045	2050	2050	
1190	0	2046	2048	2044	2041	
1191	0	2044	2054	2040	2039	
1192	0	2042	2051	2054	2053	
1193	0	2043	2039	2048	2047	
1194	0	2047	2045	2053	2036	
1195	0	2048	2050	2044	2051	
1196	0	2049	2048	2055	2040	
1197	0	2056	2055	2053	2054	
1198	0	2055	2053	2049	2041	
1199	0	2051	2051	2049	2058	
1200	0	2052	2053	2036	2044	
1201	0	2050	2051	2045	2049	
1202	0	2056	2052	2052	2051	
1203	0	2058	2049	2047	2045	
1204	0	2057	2044	2038	2056	
1205	0	2051	2050	2046	2049	
1206	0	2051	2050	2044	2051	
1207	0	2048	2042	2047	2052	
1208	0	2047	2046	2055	2047	
1209	0	2044	2039	2040	2050	
1210	0	2045	2048	2054	2040	
1211	0	2042	2046	2051	2043	
1212	0	2042	2048	2048	2038	
1213	0	2038	2048	2049	2043	
1214	0	2041	2046	2054	2045	
1215	0	2048	2048	2040	2046	
1216	0	2048	2045	2037	2043	
1217	0	2053	2052	2045	2047	
1218	0	2054	2047	2046	2049	
1219	0	2056	2054	2056	2050	
1220	0	2057	2052	2046	2048	
1221	0	2056	2050	2056	2053	
1222	0	2058	2055	2051	2046	
1223	0	2057	2052	2054	2057	
1224	0	2053	2049	2043	2043	
1225	0	2049	2047	2050	2055	
1226	0	2050	2039	2052	2037	
1227	0	2046	2050	2051	2049	
1228	0	2046	2047	2048	2038	
1229	0	2044	2045	2037	2057	
1230	0	2043	2042	2049	2041	
1231	0	2041	2041	2046	2054	
1232	0	2046	2057	2046	2037	
1233	0	2046	2049	2038	2040	
1234	0	2043	2045	2047	2052	
1235	0	2043	2052	2048	2040	
1236	0	2044	2045	2048	2061	
1237	0	2044	2049	2046	2044	
1238	0	2050	2048	2041	2059	
1239	0	2053	2046	2050	2047	
1240	0	2050	2056	2042	2052	
1241	0	2055	2051	2050	2056	
1242	0	2057	2050	2054	2045	
1243	0	2057	2053	2053	2048	
1244	0	2057	2053	2055	2050	
1245	0	2055	2047	2055	2039	
1246	0	2048	2050	2043	2052	
1247	0	2052	2044	2052	2039	
1248	0	2049	2053	2052	2054	
1249	0	2046	2047	2048	2039	
1250	0	2039	2045	2030	2044	
1251	0	2042	2053	2042	2049	
1252	0	2045	2048	2048	2037	
1253	0	2043	2045	2049	2049	
1254	0	2047	2050	2051	2048	
1255	0	2045	2045	2044	2038	
1256	0	2048	2054	2042	2052	
1257	0	2049	2046	2053	2044	
1258	0	2051	2044	2052	2057	
1259	0	2052	2048	2050	2044	
1260	0	2054	2047	2043	2058	
1261	0	2051	2057	2047	2046	
1262	0	2056	2043	2055	2046	
1263	0	2054	2046	2043	2049	
1264	0	2048	2054	2042	2043	
1265	0	2052	2051	2051	2040	
1266	0	2052	2047	2053	2050	
1267	0	2053	2051	2051	2042	
1268	0	2046	2051	2042	2045	
1269	0	2041	2046	2055	2052	
1270	0	2047	2044	2044	2042	
1271	0	2043	2050	2043	2043	
1272	0	2043	2050	2039	2052	
1273	0	2046	2041	2053	2046	
1274	0	2046	2041	2054	2043	
1275	0	2047	2055	2041	2053	
1276	0	2053	2055	2054	2045	
1277	0	2052	2049	2048	2047	
1278	0	2056	2048	2053	2054	
1279	0	2055	2054	2055	2047	
1280	0	2056	2046	2054	2049	
1281	0	2053	2047	2052	2050	
1282	0	2050	2052	2055	2041	
1283	0	2051	2048	2039	2057	
1284	0	2051	2051	2046	2040	
1285	0	2047	2052	2042	2052	
1286	0	2051	2050	2039	2044	
1287	0	2052	2055	2044	2037	
1288	0	2053	2050	2038	2049	
1289	0	2046	2044	2047	2036	
1290	0	2044	2048	2045	2056	
1291	0	2045	2045	2043	2048	
1292	0	2043	2052	2049	2052	
1293	0	2045	2047	2049	2042	
1294	0	2048	2045	2053	2044	
1295	0	2050	2053	2055	2050	
1296	0	2049	2048	2048	2041	
1297	0	2052	2043	2054	2054	
1298	0	2051	2050	2039	2045	
1299	0	2051	2042	2048	2048	
1300	0	2054	2048	2049	2058	
1301	0	2056	2052	2058	2044	
1302	0	2053	2050	2042	2059	
1303	0	2056	2048	2050	2048	
1304	0	2056	2059	2054	2048	
1305	0	2056	2050	2057	2052	
1306	0	2050	2054	2043	2044	
1307	0	2051	2050	2039	2050	
1308	0	2043	2046	2037	2037	
1309	0	2042	2048	2047	2052	
1310	0	2044	2047	2038	2038	
1311	0	2045	2045	2047	2044	
1312	0	2045	2053	2040	2047	
1313	0	2050	2045	2054	2040	
1314	0	2045	2044	2048	2044	
1315	0	2044	2047	2057	2048	
1316	0	2044	2044	2049	2041	
1317	0	2043	2038	2049	2051	
1318	0	2047	2051	2055	2042	
1319	0	2052	2054	2049	2052	
1320	0	2057	2056	2056	2058	
1321	0	2059	2055	2043	2047	
1322	0	2050	2041	2046	2059	
1323	0	2051	2040	2054	2059	
1324	0	2053	2050	2035	2044	
1325	0	2055	2049	2046	2055	
1326	0	2051	2051	2045	2045	
1327	0	2047	2055	2045	2036	
1328	0	2047	2050	2039	2046	
1329	0	2047	2051	2046	2038	
1330	0	2047	2054	2043	2039	
1331	0	2047	2047	2048	2043	
1332	0	2050	2048	2039	2039	
1333	0	2049	2050	2049	2056	
1334	0	2050	2047	2052	2043	
1335	0	2048	2048	2054	2046	
1336	0	2049	2051	2046	2055	
1337	0	2048	2048	2045	2046	
1338	0	2047	2042	2051	2047	
1339	0	2053	2055	2041	2049	
1340	0	2054	2050	2059	2042	
1341	0	2052	2054	2058	2045	
1342	0	2051	2052	2054	2043	
1343	0	2050	2047	2056	2051	
1344	0	2048	2050	2042	2041	
1345	0	2045	2048	2050	2053	
1346	0	2046	2043	2047	2039	
1347	0	2050	2052	2045	2058	
1348	0	2048	2048	2048	2049	
1349	0	2047	2049	2030	2056	
1350	0	2046	2048	2042	2046	
1351	0	2047	2052	2043	2044	
1352	0	2045	2047	2041	2053	
1353	0	2043	2045	2050	2038	
1354	0	2047	2056	2039	2053	
1355	0	2046	2047	2051	2039	
1356	0	2048	2043	2047	2053	
1357	0	2049	2044	2054	2049	
1358	0	2058	2046	2045	2052	
1359	0	2052	2046	2057	2053	
1360	0	2053	2046	2058	2044	
1361	0	2056	2051	2049	2056	
1362	0	2055	2059	2054	2041	
1363	0	2059	2056	2044	2060	
1364	0	2057	2062	2047	2046	
1365	0	2054	2054	2052	2050	
1366	0	2048	2048	2049	2047	
1367	0	2050	2049	2037	2048	
1368	0	2049	2040	2046	2034	
1369	0	2048	2033	2054	2032	
1370	0	2045	2042	2053	2044	
1371	0	2042	2053	2052	2025	
1372	0	2043	2050	2048	2036	
1373	0	2040	2046	2049	2058	
1374	0	2043	2042	2040	2064	
1375	0	2048	2055	2045	2056	
1376	0	2049	2043	2034	2045	
1377	0	2048	2044	2049	2064	
1378	0	2049	2049	2051	2046	
1379	0	2048	2043	2045	2051	
1380	0	2050	2050	2058	2046	
1381	0	2055	2046	2056	2053	
1382	0	2056	2057	2047	2036	
1383	0	2060	2054	2053	2046	
1384	0	2061	2059	2058	2040	
1385	0	2054	2055	2051	2048	
1386	0	2054	2043	2062	2040	
1387	0	2048	2045	2044	2047	
1388	0	2052	2058	2038	2036	
1389	0	2049	2067	2046	2046	
1390	0	2045	2052	2044	2034	
1391	0	2042	2054	2037	2046	
1392	0	2035	2051	2036	2042	
1393	0	2039	2045	2027	2055	
1394	0	2043	2046	2035	2057	
1395	0	2045	2032	2045	2053	
1396	0	2046	2039	2040	2037	
1397	0	2053	2049	2053	2035	
1398	0	2053	2055	2046	2037	
1399	0	2055	2048	2055	2047	
1400	0	2060	2046	2060	2050	
1401	0	2058	2051	2060	2055	
1402	0	2057	2047	2053	2049	
1403	0	2054	2054	2053	2054	
1404	0	2057	2060	2044	2049	
1405	0	2054	2051	2052	2046	
1406	0	2054	2049	2046	2040	
1407	0	2050	2050	2058	2035	
1408	0	2047	2048	2053	2038	
1409	0	2040	2042	2039	2059	
1410	0	2042	2046	2039	2046	
1411	0	2044	2045	2037	2042	
1412	0	2038	2038	2031	2045	
1413	0	2038	2037	2042	2046	
1414	0	2040	2041	2042	2053	
1415	0	2048	2050	2038	2039	
1416	0	2049	2058	2037	2050	
1417	0	2053	2056	2048	2050	
1418	0	2056	2055	2055	2036	
1419	0	2053	2057	2049	2057	
1420	0	2048	2048	2054	2050	
1421	0	2054	2049	2056	2050	
1422	0	2056	2056	2056	2050	
1423	0	2059	2050	2049	2045	
1424	0	2056	2054	2047	2056	
1425	0	2053	2048	2053	2046	
1426	0	2048	2043	2053	2048	
1427	0	2046	2045	2047	2041	
1428	0	2043	2048	2047	2038	
1429	0	2045	2047	2047	2035	
1430	0	2047	2052	2044	2033	
1431	0	2048	2052	2041	2035	
1432	0	2045	2047	2052	2037	
1433	0	2041	2042	2045	2041	
1434	0	2045	2048	2049	2048	
1435	0	2044	2046	2044	2044	
1436	0	2046	2048	2051	2045	
1437	0	2049	2046	2051	2049	
1438	0	2052	2049	2042	2053	
1439	0	2056	2052	2051	2055	
1440	0	2064	2065	2046	2051	
1441	0	2053	2054	2057	2053	
1442	0	2051	2044	2049	2047	
1443	0	2049	2041	2045	2051	
1444	0	2047	2045	2058	2049	
1445	0	2052	2044	2052	2044	
1446	0	2053	2053	2044	2047	
1447	0	2049	2053	2049	2046	
1448	0	2046	2051	2041	2046	
1449	0	2042	2038	2038	2042	
1450	0	2044	2039	2041	2041	
1451	0	2035	2042	2040	2044	
1452	0	2042	2052	2046	2035	
1453	0	2047	2055	2049	2040	
1454	0	2053	2058	2055	2043	
1455	0	2052	2059	2051	2046	
1456	0	2050	2053	2040	2045	
1457	0	2049	2050	2049	2051	
1458	0	2053	2047	2056	2055	
1459	0	2050	2053	2052	2046	
1460	0	2054	2053	2055	2048	
1461	0	2058	2054	2048	2045	
1462	0	2055	2056	2053	2048	
1463	0	2055	2049	2042	2047	
1464	0	2053	2043	2057	2046	
1465	0	2048	2045	2052	2053	
1466	0	2046	2047	2037	2052	
1467	0	2050	2056	2041	2046	
1468	0	2045	2051	2032	2045	
1469	0	2052	2050	2045	2050	
1470	0	2046	2038	2045	2055	
1471	0	2038	2033	2034	2046	
1472	0	2042	2043	2044	2036	
1473	0	2045	2049	2041	2050	
1474	0	2043	2056	2054	2046	
1475	0	2044	2050	2049	2052	
1476	0	2048	2049	2052	2051	
1477	0	2046	2053	2044	2039	
1478	0	2048	2044	2051	2056	
1479	0	2056	2048	2050	2050	
1480	0	2060	2059	2054	2040	
1481	0	2057	2057	2054	2051	
1482	0	2059	2054	2055	2045	
1483	0	2058	2059	2055	2038	
1484	0	2057	2045	2041	2066	
1485	0	2056	2050	2047	2043	
1486	0	2052	2056	2048	2053	
1487	0	2047	2053	2043	2042	
1488	0	2048	2065	2046	2046	
1489	0	2041	2062	2026	2045	
1490	0	2039	2043	2043	2036	
1491	0	2033	2030	2037	2056	
1492	0	2037	2023	2045	2051	
1493	0	2039	2026	2048	2046	
1494	0	2041	2033	2053	2068	
1495	0	2043	2036	2049	2042	
1496	0	2052	2052	2059	2042	
1497	0	2054	2063	2039	2030	
1498	0	2053	2052	2045	2033	
1499	0	2054	2059	2046	2042	
1500	0	2055	2059	2059	2041	
1501	0	2056	2054	2059	2059	
1502	0	2058	2046	2051	2047	
1503	0	2057	2059	2058	2041	
1504	0	2058	2054	2044	2051	
1505	0	2055	2051	2042	2043	
1506	0	2054	2050	2049	2065	
1507	0	2046	2046	2047	2045	
1508	0	2049	2053	2053	2050	
1509	0	2051	2051	2044	2041	
1510	0	2044	2041	2053	2055	
1511	0	2040	2044	2051	2040	
1512	0	2042	2041	2041	2048	
1513	0	2047	2044	2049	2055	
1514	0	2046	2039	2032	2059	
1515	0	2044	2048	2045	2049	
1516	0	2045	2053	2045	2042	
1517	0	2040	2048	2047	2052	
1518	0	2051	2064	2047	2034	
1519	0	2057	2066	2054	2044	
1520	0	2061	2053	2054	2043	
1521	0	2054	2039	2050	2070	
1522	0	2045	2029	2053	2049	
1523	0	2047	2048	2040	2042	
1524	0	2055	2049	2054	2043	
1525	0	2055	2052	2060	2032	
1526	0	2057	2061	2054	2042	
1527	0	2055	2061	2041	2044	
1528	0	2051	2056	2053	2062	
1529	0	2044	2050	2047	2058	
1530	0	2046	2046	2042	2043	
1531	0	2045	2050	2033	2051	
1532	0	2046	2045	2044	2040	
1533	0	2043	2042	2047	2066	
1534	0	2044	2043	2054	2057	
1535	0	2048	2046	2042	2045	
1536	0	2053	2052	2056	2048	
1537	0	2050	2054	2055	2044	
1538	0	2052	2049	2055	2050	
1539	0	2048	2052	2044	2053	
1540	0	2055	2049	2054	2041	
1541	0	2056	2045	2054	2053	
1542	0	2054	2053	2047	2045	
1543	0	2050	2046	2054	2058	
1544	0	2053	2039	2042	2055	
1545	0	2050	2049	2045	2044	
1546	0	2047	2048	2046	2054	
1547	0	2050	2051	2051	2042	
1548	0	2043	2050	2038	2050	
1549	0	2048	2050	2047	2038	
1550	0	2039	2048	2046	2042	
1551	0	2041	2042	2045	2039	
1552	0	2044	2041	2037	2034	
1553	0	2041	2047	2045	2057	
1554	0	2042	2051	2044	2034	
1555	0	2043	2045	2041	2040	
1556	0	2045	2052	2049	2040	
1557	0	2047	2040	2039	2061	
1558	0	2056	2045	2054	2054	
1559	0	2060	2049	2052	2043	
1560	0	2058	2048	2060	2046	
1561	0	2057	2053	2047	2060	
1562	0	2065	2060	2064	2044	
1563	0	2062	2054	2055	2054	
1564	0	2056	2064	2050	2042	
1565	0	2054	2054	2036	2047	
1566	0	2050	2047	2050	2054	
1567	0	2051	2057	2046	2043	
1568	0	2053	2054	2051	2051	
1569	0	2047	2047	2037	2036	
1570	0	2048	2049	2048	2039	
1571	0	2048	2044	2050	2037	
1572	0	2046	2043	2044	2055	
1573	0	2046	2043	2050	2053	
1574	0	2041	2037	2039	2038	
1575	0	2043	2044	2050	2045	
1576	0	2044	2051	2046	2049	
1577	0	2048	2050	2056	2041	
1578	0	2049	2054	2046	2048	
1579	0	2053	2049	2058	2038	
1580	0	2049	2046	2048	2039	
1581	0	2055	2051	2050	2059	
1582	0	2055	2054	2042	2054	
1583	0	2052	2043	2049	2045	
1584	0	2054	2044	2052	2056	
1585	0	2055	2050	2044	2046	
1586	0	2048	2042	2046	2060	
1587	0	2046	2055	2044	2053	
1588	0	2051	2053	2048	2043	
1589	0	2046	2055	2046	2048	
1590	0	2042	2050	2045	2041	
1591	0	2036	2044	2045	2048	
1592	0	2042	2046	2045	2046	
1593	0	2046	2053	2034	2043	
1594	0	2048	2048	2049	2058	
1595	0	2049	2046	2053	2046	
1596	0	2048	2053	2053	2042	
1597	0	2048	2048	2040	2045	
1598	0	2049	2049	2050	2038	
1599	0	2052	2060	2044	2043	
1600	0	2053	2041	2044	2060	
1601	0	2054	2042	2043	2054	
1602	0	2056	2053	2057	2061	
1603	0	2059	2048	2051	2052	
1604	0	2054	2044	2057	2047	
1605	0	2053	2048	2040	2054	
1606	0	2055	2053	2052	2038	
1607	0	2052	2055	2053	2051	
1608	0	2048	2054	2052	2035	
1609	0	2043	2047	2053	2040	
1610	0	2043	2053	2043	2048	
1611	0	2040	2046	2046	2037	
1612	0	2042	2043	2047	2049	
1613	0	2041	2050	2048	2038	
1614	0	2045	2041	2035	2052	
1615	0	2042	2040	2047	2054	
1616	0	2046	2052	2046	2043	
1617	0	2050	2046	2051	2051	
1618	0	2050	2047	2039	2043	
1619	0	2054	2051	2046	2054	
1620	0	2055	2048	2054	2044	
1621	0	2058	2053	2050	2048	
1622	0	2055	2049	2046	2058	
1623	0	2055	2049	2040	2046	
1624	0	2053	2057	2054	2066	
1625	0	2054	2052	2049	2053	
1626	0	2049	2044	2055	2059	
1627	0	2043	2050	2045	2051	
1628	0	2047	2046	2054	2036	
1629	0	2051	2048	2048	2052	
1630	0	2048	2057	2045	2041	
1631	0	2044	2052	2044	2039	
1632	0	2047	2051	2051	2050	
1633	0	2047	2061	2041	2028	
1634	0	2043	2050	2043	2053	
1635	0	2041	2024	2035	2043	
1636	0	2038	2030	2049	2055	
1637	0	2045	2046	2050	2040	
1638	0	2046	2052	2046	2053	
1639	0	2052	2056	2038	2052	
1640	0	2053	2049	2050	2042	
1641	0	2056	2055	2052	2054	
1642	0	2057	2055	2056	2043	
1643	0	2054	2046	2042	2058	
1644	0	2060	2055	2056	2036	
1645	0	2056	2047	2056	2052	
1646	0	2055	2046	2059	2042	
1647	0	2054	2050	2044	2038	
1648	0	2049	2048	2049	2053	
1649	0	2043	2048	2042	2052	
1650	0	2041	2052	2043	2057	
1651	0	2042	2047	2032	2042	
1652	0	2043	2047	2050	2047	
1653	0	2043	2059	2047	2045	
1654	0	2046	2054	2048	2037	
1655	0	2048	2055	2038	2046	
1656	0	2044	2053	2052	2041	
1657	0	2047	2035	2052	2050	
1658	0	2051	2033	2056	2048	
1659	0	2050	2047	2038	2042	
1660	0	2055	2048	2054	2050	
1661	0	2059	2051	2055	2038	
1662	0	2059	2063	2056	2054	
1663	0	2059	2058	2042	2042	
1664	0	2058	2057	2035	2054	
1665	0	2057	2048	2049	2048	
1666	0	2052	2046	2048	2049	
1667	0	2051	2049	2046	2043	
1668	0	2048	2047	2059	2048	
1669	0	2042	2050	2039	2049	
1670	0	2040	2044	2044	2053	
1671	0	2039	2044	2050	2040	
1672	0	2042	2046	2048	2054	
1673	0	2041	2040	2053	2042	
1674	0	2046	2053	2041	2049	
1675	0	2043	2047	2050	2057	
1676	0	2051	2046	2054	2054	
1677	0	2051	2044	2042	2047	
1678	0	2053	2047	2056	2040	
1679	0	2053	2050	2061	2044	
1680	0	2058	2052	2063	2051	
1681	0	2057	2053	2061	2060	
1682	0	2060	2050	2048	2050	
1683	0	2059	2054	2053	2046	
1684	0	2061	2054	2058	2050	
1685	0	2054	2048	2059	2050	
1686	0	2062	2046	2056	2055	
1687	0	2050	2041	2039	2060	
1688	0	2040	2037	2046	2051	
1689	0	2043	2042	2045	2051	
1690	0	2044	2046	2030	2054	
1691	0	2040	2042	2037	2051	
1692	0	2041	2044	2047	2052	
1693	0	2043	2049	2048	2049	
1694	0	2044	2047	2048	2046	
1695	0	2047	2052	2042	2038	
1696	0	2048	2051	2050	2033	
1697	0	2046	2052	2045	2027	
1698	0	2046	2050	2036	2027	
1699	0	2050	2054	2036	2025	
1700	0	2051	2060	2029	2024	
1701	0	2053	2054	2043	2035	
1702	0	2050	2047	2036	2040	
1703	0	2052	2046	2027	2033	
1704	0	2048	2047	2041	2031	
1705	0	2052	2047	2046	2035	
1706	0	2048	2047	2034	2043	
1707	0	2041	2053	2038	2047	
1708	0	2048	2050	2044	2052	
1709	0	2046	2053	2046	2055	
1710	0	2047	2050	2044	2052	
1711	0	2045	2040	2037	2043	
1712	0	2046	2042	2043	2040	
1713	0	2044	2048	2051	2039	
1714	0	2047	2052	2056	2038	
1715	0	2046	2050	2051	2045	
1716	0	2043	2046	2041	2048	
1717	0	2047	2047	2057	2045	
1718	0	2054	2056	2057	2041	
1719	0	2056	2063	2046	2050	
1720	0	2057	2056	2055	2050	
1721	0	2056	2049	2060	2056	
1722	0	2057	2051	2059	2056	
1723	0	2059	2053	2057	2057	
1724	0	2052	2052	2046	2054	
1725	0	2054	2051	2048	2051	
1726	0	2053	2049	2051	2053	
1727	0	2052	2044	2052	2079	
1728	0	2049	2040	2054	2058	
1729	0	2049	2041	2041	2049	
1730	0	2042	2041	2044	2045	
1731	0	2039	2043	2041	2047	
1732	0	2047	2050	2051	2044	
1733	0	2041	2047	2049	2045	
1734	0	2044	2046	2040	2048	
1735	0	2048	2045	2042	2048	
1736	0	2047	2043	2046	2049	
1737	0	2048	2047	2053	2052	
1738	0	2052	2052	2057	2046	
1739	0	2055	2057	2048	2041	
1740	0	2061	2058	2054	2041	
1741	0	2061	2057	2059	2041	
1742	0	2057	2055	2057	2045	
1743	0	2057	2051	2053	2046	
1744	0	2054	2050	2044	2044	
1745	0	2054	2052	2058	2055	
1746	0	2052	2052	2051	2057	
1747	0	2047	2051	2046	2054	
1748	0	2045	2051	2047	2061	
1749	0	2045	2045	2050	2054	
1750	0	2044	2044	2042	2046	
1751	0	2043	2039	2044	2040	
1752	0	2040	2041	2043	2036	
1753	0	2045	2046	2045	2037	
1754	0	2042	2049	2047	2034	
1755	0	2042	2049	2032	2034	
1756	0	2044	2050	2041	2047	
1757	0	2042	2054	2047	2040	
1758	0	2048	2051	2041	2044	
1759	0	2052	2051	2047	2049	
1760	0	2056	2048	2056	2056	
1761	0	2056	2054	2054	2059	
1762	0	2055	2052	2054	2061	
1763	0	2055	2050	2045	2048	
1764	0	2056	2048	2056	2039	
1765	0	2058	2049	2057	2038	
1766	0	2052	2054	2037	2039	
1767	0	2049	2047	2046	2057	
1768	0	2048	2049	2051	2045	
1769	0	2046	2048	2050	2038	
1770	0	2034	2039	2047	2044	
1771	0	2046	2043	2036	2044	
1772	0	2058	2052	2052	2051	
1773	0	2051	2052	2047	2060	
1774	0	2047	2053	2037	2056	
1775	0	2046	2056	2044	2045	
1776	0	2044	2052	2048	2051	
1777	0	2050	2042	2038	2047	
1778	0	2047	2026	2048	2040	
1779	0	2048	2032	2057	2043	
1780	0	2047	2048	2059	2061	
1781	0	2052	2046	2049	2069	
1782	0	2053	2051	2050	2063	
1783	0	2058	2058	2053	2051	
1784	0	2055	2065	2052	2049	
1785	0	2048	2057	2052	2044	
1786	0	2051	2066	2040	2035	
1787	0	2051	2055	2050	2042	
1788	0	2044	2039	2046	2041	
1789	0	2042	2043	2041	2036	
1790	0	2045	2052	2049	2037	
1791	0	2049	2059	2055	2036	
1792	0	2057	2063	2056	2040	
1793	0	2054	2064	2049	2049	
1794	0	2042	2041	2036	2053	
1795	0	2037	2025	2040	2047	
1796	0	2039	2030	2046	2042	
1797	0	2053	2046	2043	2039	
1798	0	2052	2047	2047	2043	
1799	0	2053	2050	2041	2049	
1800	0	2052	2051	2054	2058	
1801	0	2058	2048	2056	2058	
1802	0	2054	2050	2041	2054	
1803	0	2052	2052	2051	2057	
1804	0	2056	2053	2053	2052	
1805	0	2055	2057	2040	2044	
1806	0	2051	2046	2050	2039	
1807	0	2048	2046	2047	2046	
1808	0	2049	2047	2034	2049	
1809	0	2049	2048	2052	2050	
1810	0	2045	2046	2049	2053	
1811	0	2045	2044	2042	2056	
1812	0	2044	2045	2047	2058	
1813	0	2044	2047	2040	2054	
1814	0	2044	2045	2050	2045	
1815	0	2043	2044	2046	2037	
1816	0	2042	2041	2041	2037	
1817	0	2049	2050	2053	2046	
1818	0	2053	2050	2052	2050	
1819	0	2050	2061	2045	2036	
1820	0	2057	2067	2060	2042	
1821	0	2060	2062	2054	2043	
1822	0	2061	2057	2052	2035	
1823	0	2056	2054	2049	2078	
1824	0	2056	2049	2048	2053	
1825	0	2049	2043	2052	2051	
1826	0	2052	2050	2038	2060	
1827	0	2045	2042	2050	2041	
1828	0	2041	2037	2041	2054	
1829	0	2047	2048	2046	2049	
1830	0	2045	2039	2036	2038	
1831	0	2044	2032	2046	2051	
1832	0	2040	2043	2041	2046	
1833	0	2041	2053	2047	2036	
1834	0	2052	2066	2041	2040	
1835	0	2055	2066	2052	2032	
1836	0	2048	2051	2047	2042	
1837	0	2051	2046	2051	2049	
1838	0	2053	2048	2047	2041	
1839	0	2051	2051	2048	2060	
1840	0	2054	2046	2050	2048	
1841	0	2057	2047	2052	2046	
1842	0	2054	2050	2044	2059	
1843	0	2056	2047	2052	2041	
1844	0	2051	2046	2043	2060	
1845	0	2052	2045	2048	2066	
1846	0	2045	2040	2041	2044	
1847	0	2044	2040	2053	2053	
1848	0	2045	2053	2051	2040	
1849	0	2049	2048	2043	2037	
1850	0	2043	2048	2052	2045	
1851	0	2045	2064	2048	2034	
1852	0	2045	2044	2049	2059	
1853	0	2043	2047	2044	2049	
1854	0	2041	2046	2042	2060	
1855	0	2042	2050	2050	2045	
1856	0	2046	2050	2040	2043	
1857	0	2050	2049	2046	2051	
1858	0	2050	2053	2037	2032	
1859	0	2052	2054	2052	2054	
1860	0	2053	2047	2055	2040	
1861	0	2056	2045	2061	2052	
1862	0	2058	2055	2044	2058	
1863	0	2053	2051	2050	2052	
1864	0	2061	2047	2051	2042	
1865	0	2059	2054	2052	2038	
1866	0	2056	2047	2037	2058	
1867	0	2053	2050	2046	2031	
1868	0	2049	2053	2048	2048	
1869	0	2044	2043	2043	2050	
1870	0	2042	2048	2052	2055	
1871	0	2045	2045	2037	2053	
1872	0	2039	2040	2047	2045	
1873	0	2042	2049	2041	2049	
1874	0	2042	2048	2048	2034	
1875	0	2044	2052	2038	2050	
1876	0	2045	2051	2052	2037	
1877	0	2049	2044	2050	2052	
1878	0	2049	2048	2055	2055	
1879	0	2056	2048	2042	2042	
1880	0	2056	2044	2048	2054	
1881	0	2052	2052	2055	2041	
1882	0	2053	2047	2047	2058	
1883	0	2053	2045	2055	2048	
1884	0	2054	2057	2040	2053	
1885	0	2052	2051	2049	2054	
1886	0	2048	2057	2051	2048	
1887	0	2051	2048	2049	2057	
1888	0	2045	2049	2052	2042	
1889	0	2049	2055	2042	2049	
1890	0	2050	2050	2053	2040	
1891	0	2044	2055	2056	2047	
1892	0	2041	2042	2042	2047	
1893	0	2040	2018	2048	2038	
1894	0	2046	2040	2040	2047	
1895	0	2047	2049	2054	2031	
1896	0	2049	2044	2050	2049	
1897	0	2049	2051	2053	2048	
1898	0	2055	2047	2044	2037	
1899	0	2057	2050	2039	2048	
1900	0	2054	2057	2044	2039	
1901	0	2052	2053	2048	2057	
1902	0	2054	2054	2051	2052	
1903	0	2055	2053	2055	2061	
1904	0	2054	2053	2047	2050	
1905	0	2054	2044	2054	2060	
1906	0	2052	2044	2050	2045	
1907	0	2050	2046	2055	2056	
1908	0	2048	2044	2043	2048	
1909	0	2046	2048	2044	2043	
1910	0	2050	2056	2045	2047	
1911	0	2048	2059	2035	2046	
1912	0	2049	2051	2053	2044	
1913	0	2045	2051	2032	2043	
1914	0	2040	2053	2042	2039	
1915	0	2045	2052	2047	2038	
1916	0	2045	2045	2047	2048	
1917	0	2051	2049	2050	2045	
1918	0	2056	2052	2042	2054	
1919	0	2048	2042	2053	2059	
1920	0	2050	2047	2053	2054	
1921	0	2055	2051	2051	2052	
1922	0	2053	2053	2045	2061	
1923	0	2052	2050	2040	2062	
1924	0	2054	2046	2052	2060	
1925	0	2048	2044	2048	2061	
1926	0	2052	2049	2043	2057	
1927	0	2049	2052	2048	2049	
1928	0	2049	2054	2049	2036	
1929	0	2046	2054	2041	2043	
1930	0	2041	2046	2050	2043	
1931	0	2040	2043	2050	2050	
1932	0	2037	2044	2044	2042	
1933	0	2044	2052	2049	2045	
1934	0	2049	2054	2039	2045	
1935	0	2045	2053	2050	2050	
1936	0	2048	2047	2052	2052	
1937	0	2054	2045	2045	2053	
1938	0	2054	2048	2054	2046	
1939	0	2054	2051	2051	2047	
1940	0	2056	2051	2047	2051	
1941	0	2055	2047	2048	2057	
1942	0	2057	2047	2048	2062	
1943	0	2061	2054	2056	2058	
1944	0	2057	2054	2056	2046	
1945	0	2054	2050	2050	2042	
1946	0	2047	2042	2044	2043	
1947	0	2044	2043	2044	2042	
1948	0	2039	2044	2047	2047	
1949	0	2049	2054	2048	2046	
1950	0	2047	2055	2041	2051	
1951	0	2044	2046	2044	2052	
1952	0	2043	2039	2041	2044	
1953	0	2041	2042	2041	2050	
1954	0	2045	2043	2046	2056	
1955	0	2049	2055	2049	2048	
1956	0	2052	2060	2052	2043	
1957	0	2051	2060	2056	2043	
1958	0	2047	2052	2043	2041	
1959	0	2050	2044	2049	2052	
1960	0	2052	2040	2050	2048	
1961	0	2048	2032	2046	2047	
1962	0	2055	2046	2053	2052	
1963	0	2055	2053	2055	2057	
1964	0	2056	2050	2048	2061	
1965	0	2049	2045	2048	2060	
1966	0	2044	2045	2038	2053	
1967	0	2049	2045	2054	2048	
1968	0	2049	2051	2051	2043	
1969	0	2044	2048	2048	2031	
1970	0	2042	2043	2045	2034	
1971	0	2042	2047	2039	2034	
1972	0	2045	2054	2051	2033	
1973	0	2047	2054	2049	2043	
1974	0	2051	2054	2034	2042	
1975	0	2047	2053	2048	2045	
1976	0	2042	2052	2048	2052	
1977	0	2048	2044	2036	2051	
1978	0	2052	2044	2044	2053	
1979	0	2052	2047	2050	2046	
1980	0	2056	2053	2045	2043	
1981	0	2058	2054	2055	2048	
1982	0	2057	2049	2052	2041	
1983	0	2053	2045	2051	2046	
1984	0	2048	2050	2047	2042	
1985	0	2056	2055	2037	2041	
1986	0	2050	2050	2050	2040	
1987	0	2049	2050	2052	2045	
1988	0	2045	2048	2056	2049	
1989	0	2048	2053	2054	2043	
1990	0	2048	2050	2046	2041	
1991	0	2051	2043	2046	2044	
1992	0	2045	2046	2047	2046	
1993	0	2045	2043	2051	2042	
1994	0	2049	2046	2048	2045	
1995	0	2047	2051	2043	2042	
1996	0	2051	2048	2051	2057	
1997	0	2051	2045	2050	2046	
1998	0	2048	2045	2047	2038	
1999	0	2051	2047	2052	2037	
2000	0	2052	2050	2045	2040	
2001	0	2056	2051	2054	2047	
2002	0	2054	2054	2057	2054	
2003	0	2056	2048	2053	2055	
2004	0	2052	2053	2051	2054	
2005	0	2051	2055	2044	2055	
2006	0	2048	2052	2045	2054	
2007	0	2047	2045	2040	2057	
2008	0	2048	2048	2048	2059	
2009	0	2046	2046	2037	2055	
2010	0	2044	2041	2044	2049	
2011	0	2038	2043	2045	2042	
2012	0	2043	2050	2039	2034	
2013	0	2045	2049	2046	2034	
2014	0	2045	2050	2038	2036	
2015	0	2047	2052	2049	2036	
2016	0	2045	2053	2044	2041	
2017	0	2050	2047	2054	2046	
2018	0	2046	2049	2056	2049	
2019	0	2050	2052	2045	2048	
2020	0	2055	2050	2051	2045	
2021	0	2057	2059	2052	2065	
2022	0	2055	2054	2057	2051	
2023	0	2054	2047	2039	2041	
2024	0	2057	2053	2050	2053	
2025	0	2054	2049	2050	2035	
2026	0	2052	2048	2056	2056	
2027	0	2053	2041	2050	2045	
2028	0	2048	2043	2050	2054	
2029	0	2046	2043	2047	2050	
2030	0	2042	2042	2040	2040	
2031	0	2042	2047	2035	2053	
2032	0	2048	2046	2052	2039	
2033	0	2044	2046	2051	2048	
2034	0	2049	2052	2049	2047	
2035	0	2045	2048	2044	2040	
2036	0	2049	2047	2041	2052	
2037	0	2048	2056	2053	2036	
2038	0	2050	2051	2053	2045	
2039	0	2053	2057	2049	2039	
2040	0	2051	2052	2047	2047	
2041	0	2057	2047	2041	2054	
2042	0	2056	2056	2052	2044	
2043	0	2057	2048	2053	2060	
2044	0	2053	2045	2056	2059	
2045	0	2053	2054	2038	2043	
2046	0	2050	2046	2047	2050	
2047	0	2050	2044	2049	2053	
2048	0	2049	2052	2038	2041	
2049	0	2044	2048	2048	2046	
2050	0	2043	2046	2039	2045	
2051	0	2043	2045	2043	2031	
2052	0	2045	2053	2044	2049	
2053	0	2043	2045	2053	2047	
2054	0	2045	2048	2046	2046	
2055	0	2050	2047	2047	2052	
2056	0	2047	2045	2049	2040	
2057	0	2051	2045	2056	2049	
2058	0	2052	2052	2048	2043	
2059	0	2054	2053	2051	2047	
2060	0	2053	2049	2053	2055	
2061	0	2056	2056	2047	2042	
2062	0	2051	2045	2051	2060	
2063	0	2054	2050	2043	2046	
2064	0	2056	2055	2051	2048	
2065	0	2054	2053	2054	2058	
2066	0	2051	2050	2053	2042	
2067	0	2051	2051	2044	2055	
2068	0	2049	2050	2047	2041	
2069	0	2048	2053	2046	2053	
2070	0	2047	2046	2052	2046	
2071	0	2039	2040	2044	2039	
2072	0	2040	2042	2050	2060	
2073	0	2043	2044	2056	2042	
2074	0	2043	2040	2041	2040	
2075	0	2045	2049	2049	2048	
2076	0	2049	2051	2046	2042	
2077	0	2049	2046	2054	2053	
2078	0	2049	2051	2038	2042	
2079	0	2050	2052	2050	2055	
2080	0	2054	2053	2050	2043	
2081	0	2054	2056	2045	2048	
2082	0	2057	2051	2041	2047	
2083	0	2055	2050	2045	2050	
2084	0	2053	2046	2045	2056	
2085	0	2063	2057	2055	2050	
2086	0	2054	2057	2052	2048	
2087	0	2045	2037	2047	2050	
2088	0	2045	2042	2058	2047	
2089	0	2046	2055	2054	2038	
2090	0	2047	2051	2040	2039	
2091	0	2046	2055	2051	2046	
2092	0	2042	2053	2051	2049	
2093	0	2036	2043	2041	2047	
2094	0	2035	2039	2043	2037	
2095	0	2038	2041	2037	2040	
2096	0	2045	2035	2047	2042	
2097	0	2041	2023	2041	2082	
2098	0	2054	2046	2045	2065	
2099	0	2071	2072	2055	2041	
2100	0	2068	2078	2044	2045	
2101	0	2058	2055	2053	2056	
2102	0	2048	2040	2050	2061	
2103	0	2046	2047	2036	2052	
2104	0	2055	2055	2051	2044	
2105	0	2064	2054	2057	2048	
2106	0	2058	2056	2047	2042	
2107	0	2050	2053	2052	2035	
2108	0	2047	2046	2051	2039	
2109	0	2048	2043	2056	2045	
2110	0	2045	2045	2047	2038	
2111	0	2042	2042	2039	2041	
2112	0	2044	2048	2051	2041	
2113	0	2042	2050	2038	2048	
2114	0	2043	2056	2046	2048	
2115	0	2047	2053	2049	2043	
2116	0	2047	2051	2046	2041	
2117	0	2051	2048	2045	2034	
2118	0	2047	2048	2050	2040	
2119	0	2051	2049	2048	2053	
2120	0	2055	2048	2052	2058	
2121	0	2059	2050	2051	2057	
2122	0	2057	2047	2043	2059	
2123	0	2051	2047	2053	2060	
2124	0	2050	2052	2051	2060	
2125	0	2049	2057	2039	2052	
2126	0	2050	2057	2049	2047	
2127	0	2052	2053	2048	2045	
2128	0	2047	2046	2048	2045	
2129	0	2044	2037	2046	2040	
2130	0	2044	2038	2047	2048	
2131	0	2038	2024	2054	2047	
2132	0	2043	2043	2049	2047	
2133	0	2052	2058	2040	2045	
2134	0	2052	2049	2053	2048	
2135	0	2048	2048	2050	2051	
2136	0	2047	2046	2041	2048	
2137	0	2050	2051	2047	2035	
2138	0	2050	2054	2046	2037	
2139	0	2053	2044	2052	2046	
2140	0	2051	2046	2050	2058	
2141	0	2053	2052	2051	2055	
2142	0	2052	2054	2046	2058	
2143	0	2049	2059	2052	2048	
2144	0	2053	2047	2049	2044	
2145	0	2057	2055	2054	2052	
2146	0	2053	2052	2041	2038	
2147	0	2051	2043	2054	2052	
2148	0	2050	2047	2058	2061	
2149	0	2049	2045	2056	2045	
2150	0	2048	2052	2039	2051	
2151	0	2043	2047	2048	2043	
2152	0	2045	2046	2046	2055	
2153	0	2044	2052	2049	2042	
2154	0	2038	2047	2033	2037	
2155	0	2039	2050	2043	2044	
2156	0	2042	2042	2045	2042	
2157	0	2048	2048	2050	2063	
2158	0	2050	2044	2041	2057	
2159	0	2052	2047	2059	2042	
2160	0	2056	2053	2054	2049	
2161	0	2053	2055	2045	2046	
2162	0	2055	2052	2053	2034	
2163	0	2057	2060	2054	2051	
2164	0	2057	2057	2053	2041	
2165	0	2056	2047	2032	2047	
2166	0	2050	2047	2047	2057	
2167	0	2049	2040	2049	2045	
2168	0	2050	2054	2047	2057	
2169	0	2049	2052	2052	2042	
2170	0	2048	2044	2034	2052	
2171	0	2045	2048	2047	2040	
2172	0	2047	2042	2048	2045	
2173	0	2050	2046	2051	2037	
2174	0	2047	2051	2040	2043	
2175	0	2045	2044	2049	2051	
2176	0	2046	2047	2045	2039	
2177	0	2049	2048	2052	2051	
2178	0	2050	2050	2048	2054	
2179	0	2053	2045	2053	2045	
2180	0	2050	2054	2055	2056	
2181	0	2058	2055	2046	2052	
2182	0	2065	2059	2054	2042	
2183	0	2054	2054	2056	2059	
2184	0	2049	2050	2055	2044	
2185	0	2048	2045	2044	2040	
2186	0	2052	2042	2052	2052	
2187	0	2043	2049	2044	2054	
2188	0	2045	2049	2045	2046	
2189	0	2047	2051	2049	2052	
2190	0	2049	2053	2047	2038	
2191	0	2043	2053	2046	2033	
2192	0	2042	2044	2034	2044	
2193	0	2044	2045	2045	2036	
2194	0	2040	2048	2048	2044	
2195	0	2043	2039	2037	2053	
2196	0	2049	2037	2047	2048	
2197	0	2051	2048	2046	2047	
2198	0	2052	2050	2055	2059	
2199	0	2050	2048	2039	2049	
2200	0	2051	2053	2049	2062	
2201	0	2055	2053	2052	2052	
2202	0	2057	2047	2049	2054	
2203	0	2052	2057	2049	2051	
2204	0	2055	2055	2055	2037	
2205	0	2051	2051	2056	2039	
2206	0	2049	2057	2048	2054	
2207	0	2051	2047	2051	2046	
2208	0	2048	2046	2042	2049	
2209	0	2045	2051	2050	2036	
2210	0	2044	2043	2042	2043	
2211	0	2037	2030	2046	2060	
2212	0	2037	2043	2032	2046	
2213	0	2047	2048	2046	2051	
2214	0	2050	2050	2045	2041	
2215	0	2047	2058	2047	2029	
2216	0	2053	2066	2044	2044	
2217	0	2053	2063	2046	2045	
2218	0	2052	2057	2054	2049	
2219	0	2054	2047	2051	2056	
2220	0	2051	2039	2047	2040	
2221	0	2056	2038	2057	2044	
2222	0	2050	2046	2054	2052	
2223	0	2050	2049	2051	2046	
2224	0	2055	2048	2056	2059	
2225	0	2053	2049	2044	2047	
2226	0	2058	2048	2054	2041	
2227	0	2051	2053	2050	2055	
2228	0	2051	2050	2047	2039	
2229	0	2041	2048	2039	2031	
2230	0	2042	2055	2042	2044	
2231	0	2042	2052	2031	2034	
2232	0	2045	2046	2037	2051	
2233	0	2044	2049	2039	2062	
2234	0	2042	2044	2045	2059	
2235	0	2044	2043	2051	2052	
2236	0	2048	2049	2046	2054	
2237	0	2054	2051	2056	2046	
2238	0	2055	2045	2059	2054	
2239	0	2052	2041	2060	2060	
2240	0	2056	2055	2046	2041	
2241	0	2056	2050	2057	2044	
2242	0	2058	2051	2054	2044	
2243	0	2058	2053	2047	2046	
2244	0	2054	2041	2051	2057	
2245	0	2054	2044	2053	2049	
2246	0	2055	2050	2058	2037	
2247	0	2043	2047	2039	2054	
2248	0	2043	2046	2049	2052	
2249	0	2045	2051	2043	2033	
2250	0	2046	2055	2049	2048	
2251	0	2044	2048	2032	2045	
2252	0	2045	2050	2046	2041	
2253	0	2046	2048	2039	2046	
2254	0	2049	2043	2044	2034	
2255	0	2047	2059	2033	2051	
2256	0	2045	2053	2046	2038	
2257	0	2049	2047	2044	2039	
2258	0	2052	2043	2051	2052	
2259	0	2054	2038	2045	2037	
2260	0	2051	2042	2058	2053	
2261	0	2056	2060	2059	2071	
2262	0	2058	2057	2044	2059	
2263	0	2051	2054	2055	2048	
2264	0	2054	2055	2050	2045	
2265	0	2050	2048	2059	2040	
2266	0	2049	2033	2044	2054	
2267	0	2052	2041	2050	2046	
2268	0	2046	2052	2052	2036	
2269	0	2048	2053	2036	2045	
2270	0	2049	2047	2049	2052	
2271	0	2042	2044	2037	2044	
2272	0	2042	2046	2039	2042	
2273	0	2044	2044	2045	2055	
2274	0	2044	2048	2050	2044	
2275	0	2044	2057	2053	2036	
2276	0	2046	2053	2042	2051	
2277	0	2055	2046	2050	2047	
2278	0	2055	2055	2051	2043	
2279	0	2054	2051	2042	2060	
2280	0	2050	2043	2041	2048	
2281	0	2053	2053	2051	2051	
2282	0	2055	2050	2056	2056	
2283	0	2057	2048	2048	2047	
2284	0	2052	2053	2051	2048	
2285	0	2053	2049	2053	2056	
2286	0	2051	2044	2051	2043	
2287	0	2050	2058	2054	2052	
2288	0	2048	2049	2044	2048	
2289	0	2046	2044	2047	2048	
2290	0	2043	2048	2049	2046	
2291	0	2041	2041	2048	2032	
2292	0	2042	2049	2039	2047	
2293	0	2042	2045	2037	2046	
2294	0	2047	2050	2046	2041	
2295	0	2051	2055	2045	2057	
2296	0	2045	2050	2034	2047	
2297	0	2049	2045	2046	2041	
2298	0	2048	2056	2053	2055	
2299	0	2049	2049	2044	2038	
2300	0	2050	2054	2053	2056	
2301	0	2058	2054	2043	2048	
2302	0	2060	2049	2053	2059	
2303	0	2052	2046	2052	2050	
2304	0	2050	2047	2053	2040	
2305	0	2055	2052	2047	2049	
2306	0	2054	2054	2058	2044	
2307	0	2053	2046	2054	2051	
2308	0	2049	2048	2051	2050	
2309	0	2049	2047	2039	2037	
2310	0	2049	2045	2049	2048	
2311	0	2040	2052	2038	2045	
2312	0	2044	2052	2048	2030	
2313	0	2043	2042	2037	2049	
2314	0	2040	2045	2046	2044	
2315	0	2044	2041	2048	2052	
2316	0	2045	2044	2051	2046	
2317	0	2053	2057	2041	2026	
2318	0	2056	2050	2056	2042	
2319	0	2051	2048	2051	2052	
2320	0	2053	2052	2050	2068	
2321	0	2058	2049	2044	2054	
2322	0	2055	2042	2048	2046	
2323	0	2054	2046	2058	2061	
2324	0	2055	2058	2052	2048	
2325	0	2056	2057	2048	2038	
2326	0	2052	2046	2046	2049	
2327	0	2048	2050	2054	2058	
2328	0	2045	2047	2047	2041	
2329	0	2047	2041	2050	2051	
2330	0	2042	2047	2038	2043	
2331	0	2036	2039	2044	2049	
2332	0	2040	2044	2037	2055	
2333	0	2040	2043	2047	2046	
2334	0	2042	2042	2047	2055	
2335	0	2046	2042	2043	2054	
2336	0	2051	2058	2038	2038	
2337	0	2056	2062	2058	2035	
2338	0	2053	2056	2060	2037	
2339	0	2054	2054	2050	2044	
2340	0	2059	2052	2062	2047	
2341	0	2061	2052	2054	2053	
2342	0	2060	2050	2041	2059	
2343	0	2054	2051	2058	2058	
2344	0	2054	2050	2056	2054	
2345	0	2055	2053	2045	2050	
2346	0	2052	2046	2053	2039	
2347	0	2045	2042	2046	2038	
2348	0	2044	2045	2037	2042	
2349	0	2044	2045	2047	2042	
2350	0	2041	2047	2043	2045	
2351	0	2038	2041	2043	2045	
2352	0	2040	2043	2042	2046	
2353	0	2042	2046	2031	2049	
2354	0	2041	2041	2045	2054	
2355	0	2043	2039	2052	2053	
2356	0	2051	2047	2043	2054	
2357	0	2048	2050	2055	2053	
2358	0	2048	2051	2050	2052	
2359	0	2050	2057	2044	2047	
2360	0	2056	2060	2046	2046	
2361	0	2059	2058	2056	2044	
2362	0	2059	2054	2046	2040	
2363	0	2057	2048	2045	2045	
2364	0	2053	2046	2054	2046	
2365	0	2053	2049	2049	2050	
2366	0	2052	2050	2045	2052	
2367	0	2050	2052	2039	2053	
2368	0	2047	2049	2055	2046	
2369	0	2049	2045	2055	2042	
2370	0	2048	2045	2038	2042	
2371	0	2043	2042	2049	2046	
2372	0	2045	2048	2052	2045	
2373	0	2042	2050	2036	2045	
2374	0	2045	2049	2046	2053	
2375	0	2042	2051	2041	2054	
2376	0	2042	2047	2035	2049	
2377	0	2046	2053	2043	2050	
2378	0	2054	2046	2048	2045	
2379	0	2055	2050	2056	2049	
2380	0	2056	2049	2060	2044	
2381	0	2057	2048	2050	2043	
2382	0	2052	2047	2053	2043	
2383	0	2049	2050	2054	2046	
2384	0	2053	2058	2045	2043	
2385	0	2057	2059	2044	2041	
2386	0	2051	2050	2042	2049	
2387	0	2051	2048	2047	2051	
2388	0	2048	2047	2048	2056	
2389	0	2050	2048	2040	2055	
2390	0	2045	2042	2052	2052	
2391	0	2042	2049	2052	2033	
2392	0	2042	2038	2042	2039	
2393	0	2045	2040	2050	2042	
2394	0	2043	2044	2051	2050	
2395	0	2049	2048	2051	2040	
2396	0	2047	2053	2046	2044	
2397	0	2048	2053	2051	2053	
2398	0	2048	2043	2055	2047	
2399	0	2051	2052	2054	2055	
2400	0	2051	2053	2044	2051	
2401	0	2057	2053	2056	2043	
2402	0	2059	2057	2050	2059	
2403	0	2054	2047	2055	2044	
2404	0	2054	2043	2039	2053	
2405	0	2052	2054	2047	2055	
2406	0	2052	2049	2044	2044	
2407	0	2047	2051	2043	2056	
2408	0	2047	2051	2040	2049	
2409	0	2046	2042	2041	2038	
2410	0	2046	2043	2048	2050	
2411	0	2045	2044	2045	2048	
2412	0	2044	2043	2032	2037	
2413	0	2044	2045	2044	2046	
2414	0	2045	2054	2045	2044	
2415	0	2044	2048	2052	2035	
2416	0	2047	2046	2045	2047	
2417	0	2052	2050	2052	2048	
2418	0	2048	2050	2052	2042	
2419	0	2053	2050	2043	2054	
2420	0	2055	2052	2054	2057	
2421	0	2057	2054	2054	2047	
2422	0	2052	2052	2054	2061	
2423	0	2056	2049	2046	2053	
2424	0	2055	2056	2057	2046	
2425	0	2053	2052	2049	2052	
2426	0	2050	2048	2050	2044	
2427	0	2045	2050	2036	2054	
2428	0	2047	2046	2048	2048	
2429	0	2045	2045	2043	2040	
2430	0	2044	2051	2050	2047	
2431	0	2046	2046	2039	2049	
2432	0	2043	2044	2053	2036	
2433	0	2042	2052	2047	2044	
2434	0	2048	2048	2051	2048	
2435	0	2045	2046	2034	2038	
2436	0	2044	2055	2051	2045	
2437	0	2048	2047	2050	2050	
2438	0	2054	2045	2055	2043	
2439	0	2054	2050	2042	2053	
2440	0	2056	2049	2049	2049	
2441	0	2054	2049	2054	2045	
2442	0	2057	2057	2050	2057	
2443	0	2055	2054	2054	2053	
2444	0	2053	2049	2039	2046	
2445	0	2053	2056	2054	2056	
2446	0	2053	2055	2048	2046	
2447	0	2046	2048	2044	2046	
2448	0	2046	2048	2034	2047	
2449	0	2047	2047	2046	2036	
2450	0	2044	2046	2044	2050	
2451	0	2043	2049	2049	2044	
2452	0	2045	2046	2035	2034	
2453	0	2044	2041	2046	2053	
2454	0	2044	2047	2048	2043	
2455	0	2043	2046	2048	2041	
2456	0	2043	2048	2046	2050	
2457	0	2049	2050	2050	2044	
2458	0	2055	2047	2054	2044	
2459	0	2058	2049	2059	2053	
2460	0	2054	2055	2048	2040	
2461	0	2054	2050	2056	2055	
2462	0	2058	2048	2056	2056	
2463	0	2056	2052	2049	2044	
2464	0	2055	2046	2054	2061	
2465	0	2049	2055	2040	2046	
2466	0	2047	2049	2050	2043	
2467	0	2053	2046	2045	2046	
2468	0	2046	2046	2050	2043	
2469	0	2042	2046	2041	2048	
2470	0	2039	2036	2052	2047	
2471	0	2042	2049	2054	2058	
2472	0	2047	2046	2052	2041	
2473	0	2047	2047	2055	2037	
2474	0	2049	2053	2039	2047	
2475	0	2050	2049	2038	2035	
2476	0	2049	2046	2048	2043	
2477	0	2050	2052	2053	2049	
2478	0	2050	2050	2047	2040	
2479	0	2053	2049	2050	2048	
2480	0	2054	2053	2051	2053	
2481	0	2056	2049	2052	2044	
2482	0	2054	2049	2040	2060	
2483	0	2053	2055	2048	2047	
2484	0	2054	2049	2049	2048	
2485	0	2054	2050	2056	2055	
2486	0	2049	2053	2040	2047	
2487	0	2047	2047	2044	2045	
2488	0	2051	2046	2044	2058	
2489	0	2043	2054	2041	2044	
2490	0	2044	2047	2047	2040	
2491	0	2048	2046	2046	2051	
2492	0	2047	2052	2049	2040	
2493	0	2045	2047	2040	2040	
2494	0	2052	2044	2050	2056	
2495	0	2045	2042	2048	2044	
2496	0	2046	2046	2049	2041	
2497	0	2047	2042	2038	2059	
2498	0	2048	2044	2050	2045	
2499	0	2048	2052	2046	2047	
2500	0	2048	2050	2049	2052	
2501	0	2052	2050	2053	2040	
2502	0	2055	2057	2054	2042	
2503	0	2055	2051	2052	2056	
2504	0	2053	2047	2055	2044	
2505	0	2052	2057	2058	2047	
2506	0	2049	2050	2051	2054	
2507	0	2051	2050	2048	2046	
2508	0	2050	2057	2035	2041	
2509	0	2044	2046	2048	2053	
2510	0	2051	2045	2046	2048	
2511	0	2045	2046	2042	2033	
2512	0	2047	2046	2052	2042	
2513	0	2046	2044	2052	2047	
2514	0	2043	2039	2048	2036	
2515	0	2044	2048	2038	2047	
2516	0	2051	2046	2052	2047	
2517	0	2049	2046	2045	2041	
2518	0	2048	2051	2042	2051	
2519	0	2048	2045	2046	2054	
2520	0	2051	2046	2056	2045	
2521	0	2060	2055	2057	2058	
2522	0	2058	2050	2048	2058	
2523	0	2056	2050	2053	2045	
2524	0	2054	2058	2053	2052	
2525	0	2052	2058	2055	2055	
2526	0	2051	2048	2038	2045	
2527	0	2048	2044	2047	2043	
2528	0	2046	2055	2041	2055	
2529	0	2049	2053	2032	2046	
2530	0	2046	2044	2042	2038	
2531	0	2038	2053	2040	2050	
2532	0	2044	2044	2052	2042	
2533	0	2048	2042	2039	2037	
2534	0	2044	2051	2050	2049	
2535	0	2049	2050	2047	2034	
2536	0	2048	2047	2052	2040	
2537	0	2047	2052	2043	2054	
2538	0	2047	2049	2050	2046	
2539	0	2051	2044	2050	2052	
2540	0	2052	2055	2049	2058	
2541	0	2056	2055	2045	2044	
2542	0	2055	2046	2054	2056	
2543	0	2057	2053	2056	2055	
2544	0	2057	2048	2045	2048	
2545	0	2056	2044	2056	2063	
2546	0	2053	2050	2057	2045	
2547	0	2049	2053	2048	2047	
2548	0	2045	2046	2041	2054	
2549	0	2044	2048	2038	2037	
2550	0	2045	2046	2047	2046	
2551	0	2043	2043	2041	2046	
2552	0	2043	2047	2032	2035	
2553	0	2045	2047	2049	2041	
2554	0	2044	2046	2054	2042	
2555	0	2047	2052	2051	2034	
2556	0	2047	2049	2050	2046	
2557	0	2048	2045	2040	2042	
2558	0	2050	2054	2049	2048	
2559	0	2052	2049	2046	2056	
2560	0	2057	2045	2033	2051	
2561	0	2053	2050	2054	2046	
2562	0	2054	2050	2057	2063	
2563	0	2051	2051	2056	2063	
2564	0	2051	2048	2055	2045	
2565	0	2054	2048	2053	2050	
2566	0	2052	2060	2042	2053	
2567	0	2052	2052	2049	2040	
2568	0	2049	2044	2052	2046	
2569	0	2046	2051	2036	2054	
2570	0	2041	2047	2048	2044	
2571	0	2045	2046	2042	2043	
2572	0	2048	2048	2037	2047	
2573	0	2044	2050	2049	2040	
2574	0	2046	2046	2038	2048	
2575	0	2048	2048	2040	2042	
2576	0	2050	2052	2047	2035	
2577	0	2048	2048	2056	2054	
2578	0	2048	2044	2055	2046	
2579	0	2051	2056	2045	2046	
2580	0	2054	2051	2052	2055	
2581	0	2056	2052	2052	2049	
2582	0	2056	2056	2051	2057	
2583	0	2054	2045	2052	2044	
2584	0	2054	2056	2040	2062	
2585	0	2052	2054	2053	2050	
2586	0	2053	2045	2052	2044	
2587	0	2051	2054	2048	2049	
2588	0	2052	2044	2045	2039	
2589	0	2047	2049	2056	2044	
2590	0	2045	2048	2055	2038	
2591	0	2044	2043	2038	2051	
2592	0	2043	2046	2049	2043	
2593	0	2042	2050	2044	2033	
2594	0	2051	2049	2048	2045	
2595	0	2046	2045	2050	2041	
2596	0	2048	2045	2045	2036	
2597	0	2046	2051	2043	2049	
2598	0	2045	2045	2050	2054	
2599	0	2052	2050	2042	2047	
2600	0	2055	2046	2050	2054	
2601	0	2053	2052	2048	2068	
2602	0	2052	2046	2046	2057	
2603	0	2053	2049	2044	2059	
2604	0	2053	2060	2032	2046	
2605	0	2050	2048	2045	2046	
2606	0	2051	2046	2049	2052	
2607	0	2053	2056	2050	2040	
2608	0	2054	2053	2049	2053	
2609	0	2051	2048	2053	2042	
2610	0	2046	2044	2054	2035	
2611	0	2041	2049	2044	2049	
2612	0	2042	2047	2047	2041	
2613	0	2043	2045	2046	2037	
2614	0	2046	2050	2048	2052	
2615	0	2047	2045	2041	2035	
2616	0	2047	2044	2052	2049	
2617	0	2048	2054	2045	2040	
2618	0	2048	2044	2051	2050	
2619	0	2051	2052	2044	2047	
2620	0	2053	2050	2051	2053	
2621	0	2057	2047	2054	2052	
2622	0	2054	2053	2060	2044	
2623	0	2056	2051	2046	2058	
2624	0	2056	2052	2060	2049	
2625	0	2055	2050	2064	2045	
2626	0	2054	2052	2062	2056	
2627	0	2051	2048	2046	2045	
2628	0	2052	2049	2054	2058	
2629	0	2050	2052	2056	2048	
2630	0	2048	2045	2055	2051	
2631	0	2050	2045	2050	2052	
2632	0	2050	2040	2041	2047	
2633	0	2049	2045	2050	2058	
2634	0	2044	2045	2050	2053	
2635	0	2044	2047	2044	2048	
2636	0	2048	2049	2048	2058	
2637	0	2044	2046	2046	2048	
2638	0	2048	2049	2051	2057	
2639	0	2046	2048	2037	2062	
2640	0	2049	2047	2054	2050	
2641	0	2057	2057	2052	2061	
2642	0	2049	2048	2044	2060	
2643	0	2049	2046	2053	2042	
2644	0	2053	2049	2049	2061	
2645	0	2054	2053	2056	2044	
2646	0	2051	2050	2039	2041	
2647	0	2054	2053	2052	2040	
2648	0	2050	2055	2048	2036	
2649	0	2043	2054	2042	2024	
2650	0	2042	2046	2035	2033	
2651	0	2040	2046	2036	2041	
2652	0	2040	2051	2033	2034	
2653	0	2040	2050	2029	2021	
2654	0	2040	2043	2033	2036	
2655	0	2042	2052	2028	2039	
2656	0	2046	2053	2030	2036	
2657	0	2048	2045	2031	2032	
2658	0	2050	2046	2031	2045	
2659	0	2047	2054	2033	2054	
2660	0	2052	2046	2039	2044	
2661	0	2054	2053	2048	2056	
2662	0	2055	2053	2048	2055	
2663	0	2052	2048	2049	2043	
2664	0	2051	2049	2052	2049	
2665	0	2054	2058	2057	2059	
2666	0	2054	2051	2052	2054	
2667	0	2051	2048	2056	2049	
2668	0	2049	2045	2047	2048	
2669	0	2047	2039	2048	2065	
2670	0	2043	2044	2054	2060	
2671	0	2042	2046	2046	2047	
2672	0	2043	2042	2048	2043	
2673	0	2041	2052	2050	2046	
2674	0	2044	2046	2042	2044	
2675	0	2048	2043	2052	2046	
2676	0	2050	2046	2053	2046	
2677	0	2054	2058	2050	2048	
2678	0	2052	2050	2056	2051	
2679	0	2055	2048	2047	2042	
2680	0	2057	2057	2061	2058	
2681	0	2060	2053	2062	2055	
2682	0	2060	2052	2057	2038	
2683	0	2057	2055	2042	2054	
2684	0	2051	2054	2050	2048	
2685	0	2049	2049	2043	2040	
2686	0	2052	2044	2051	2053	
2687	0	2055	2052	2037	2051	
2688	0	2053	2049	2048	2038	
2689	0	2050	2051	2050	2044	
2690	0	2050	2044	2036	2048	
2691	0	2044	2048	2038	2041	
2692	0	2048	2049	2046	2049	
2693	0	2048	2056	2043	2036	
2694	0	2043	2054	2047	2035	
2695	0	2044	2050	2048	2045	
2696	0	2045	2049	2050	2058	
2697	0	2046	2044	2045	2054	
2698	0	2048	2041	2050	2046	
2699	0	2050	2047	2051	2043	
2700	0	2051	2050	2045	2048	
2701	0	2051	2051	2059	2058	
2702	0	2052	2051	2058	2060	
2703	0	2053	2046	2043	2045	
2704	0	2053	2046	2050	2041	
2705	0	2052	2054	2048	2049	
2706	0	2052	2052	2045	2056	
2707	0	2052	2049	2048	2051	
2708	0	2049	2050	2047	2044	
2709	0	2048	2048	2052	2038	
2710	0	2044	2048	2052	2038	
2711	0	2045	2047	2050	2035	
2712	0	2040	2053	2040	2038	
2713	0	2046	2042	2048	2045	
2714	0	2044	2041	2052	2048	
2715	0	2046	2045	2049	2055	
2716	0	2052	2050	2051	2054	
2717	0	2051	2058	2040	2054	
2718	0	2052	2047	2052	2045	
2719	0	2052	2046	2055	2041	
2720	0	2052	2053	2054	2043	
2721	0	2053	2055	2054	2047	
2722	0	2054	2048	2056	2059	
2723	0	2052	2048	2052	2059	
2724	0	2053	2051	2039	2045	
2725	0	2051	2047	2051	2045	
2726	0	2051	2044	2052	2054	
2727	0	2049	2048	2047	2041	
2728	0	2050	2049	2049	2052	
2729	0	2048	2049	2034	2043	
2730	0	2044	2049	2045	2044	
2731	0	2041	2055	2047	2053	
2732	0	2043	2047	2047	2037	
2733	0	2042	2043	2035	2033	
2734	0	2046	2050	2041	2051	
2735	0	2046	2051	2044	2046	
2736	0	2046	2044	2046	2038	
2737	0	2046	2045	2036	2057	
2738	0	2050	2047	2047	2052	
2739	0	2048	2050	2043	2043	
2740	0	2053	2044	2047	2051	
2741	0	2056	2051	2058	2059	
2742	0	2057	2054	2060	2046	
2743	0	2056	2048	2057	2046	
2744	0	2055	2052	2058	2060	
2745	0	2055	2048	2054	2043	
2746	0	2055	2055	2051	2044	
2747	0	2051	2058	2045	2053	
2748	0	2045	2041	2041	2042	
2749	0	2043	2046	2038	2041	
2750	0	2039	2048	2045	2049	
2751	0	2038	2040	2043	2054	
2752	0	2039	2046	2047	2039	
2753	0	2042	2053	2049	2038	
2754	0	2050	2045	2044	2052	
2755	0	2048	2044	2050	2049	
2756	0	2046	2045	2046	2040	
2757	0	2051	2053	2052	2040	
2758	0	2054	2051	2054	2057	
2759	0	2051	2049	2044	2055	
2760	0	2052	2048	2056	2046	
2761	0	2054	2046	2059	2050	
2762	0	2057	2053	2045	2054	
2763	0	2058	2056	2056	2052	
2764	0	2056	2055	2054	2043	
2765	0	2055	2047	2042	2038	
2766	0	2052	2045	2060	2056	
2767	0	2053	2051	2051	2049	
2768	0	2049	2048	2054	2045	
2769	0	2047	2050	2053	2044	
2770	0	2044	2045	2047	2054	
2771	0	2046	2042	2045	2045	
2772	0	2039	2047	2044	2039	
2773	0	2042	2052	2034	2037	
2774	0	2044	2050	2029	2054	
2775	0	2045	2050	2038	2055	
2776	0	2048	2048	2048	2044	
2777	0	2048	2045	2044	2041	
2778	0	2052	2046	2050	2043	
2779	0	2047	2051	2051	2053	
2780	0	2050	2052	2049	2057	
2781	0	2054	2050	2054	2054	
2782	0	2055	2048	2055	2056	
2783	0	2056	2049	2051	2049	
2784	0	2055	2051	2045	2041	
2785	0	2054	2058	2042	2042	
2786	0	2053	2055	2050	2044	
2787	0	2052	2050	2050	2047	
2788	0	2046	2043	2039	2049	
2789	0	2047	2048	2043	2048	
2790	0	2046	2049	2043	2047	
2791	0	2042	2046	2047	2041	
2792	0	2045	2046	2043	2035	
2793	0	2046	2048	2044	2035	
2794	0	2045	2046	2050	2043	
2795	0	2046	2051	2047	2048	
2796	0	2051	2050	2057	2047	
2797	0	2049	2048	2054	2050	
2798	0	2047	2042	2040	2055	
2799	0	2052	2047	2049	2060	
2800	0	2054	2054	2053	2045	
2801	0	2058	2057	2049	2045	
2802	0	2054	2051	2045	2061	
2803	0	2055	2049	2050	2045	
2804	0	2053	2050	2053	2052	
2805	0	2056	2046	2056	2055	
2806	0	2054	2050	2045	2039	
2807	0	2048	2053	2049	2055	
2808	0	2050	2045	2053	2045	
2809	0	2048	2058	2049	2043	
2810	0	2046	2048	2052	2043	
2811	0	2044	2042	2037	2032	
2812	0	2040	2050	2047	2052	
2813	0	2043	2043	2052	2041	
2814	0	2044	2045	2045	2048	
2815	0	2043	2049	2044	2046	
2816	0	2044	2046	2032	2036	
2817	0	2046	2053	2047	2053	
2818	0	2049	2049	2044	2047	
2819	0	2048	2042	2053	2044	
2820	0	2050	2050	2039	2056	
2821	0	2053	2053	2048	2051	
2822	0	2053	2050	2043	2056	
2823	0	2054	2058	2049	2054	
2824	0	2055	2055	2048	2041	
2825	0	2054	2055	2060	2050	
2826	0	2058	2053	2053	2052	
2827	0	2053	2049	2055	2039	
2828	0	2046	2045	2040	2054	
2829	0	2046	2052	2049	2038	
2830	0	2047	2047	2051	2043	
2831	0	2045	2041	2051	2048	
2832	0	2044	2048	2036	2036	
2833	0	2048	2045	2045	2054	
2834	0	2043	2036	2054	2044	
2835	0	2042	2044	2044	2055	
2836	0	2047	2042	2050	2053	
2837	0	2051	2047	2041	2043	
2838	0	2050	2058	2055	2051	
2839	0	2050	2049	2050	2045	
2840	0	2059	2048	2054	2043	
2841	0	2057	2057	2044	2056	
2842	0	2055	2049	2057	2046	
2843	0	2056	2051	2045	2046	
2844	0	2051	2057	2051	2052	
2845	0	2051	2053	2040	2040	
2846	0	2053	2046	2051	2043	
2847	0	2050	2054	2051	2050	
2848	0	2048	2048	2053	2041	
2849	0	2047	2043	2037	2042	
2850	0	2043	2048	2047	2055	
2851	0	2041	2044	2047	2041	
2852	0	2043	2041	2052	2044	
2853	0	2038	2048	2047	2053	
2854	0	2047	2047	2040	2043	
2855	0	2047	2048	2049	2051	
2856	0	2048	2053	2052	2050	
2857	0	2047	2048	2048	2039	
2858	0	2051	2044	2049	2053	
2859	0	2049	2052	2044	2047	
2860	0	2054	2054	2042	2042	
2861	0	2057	2051	2042	2058	
2862	0	2055	2054	2041	2049	
2863	0	2056	2048	2044	2047	
2864	0	2055	2053	2056	2053	
2865	0	2054	2057	2055	2044	
2866	0	2053	2051	2054	2057	
2867	0	2049	2049	2044	2049	
2868	0	2049	2048	2051	2044	
2869	0	2052	2047	2045	2046	
2870	0	2048	2049	2050	2038	
2871	0	2041	2042	2037	2053	
2872	0	2045	2043	2049	2038	
2873	0	2043	2054	2046	2033	
2874	0	2046	2047	2047	2046	
2875	0	2047	2046	2047	2032	
2876	0	2046	2052	2046	2044	
2877	0	2048	2050	2051	2045	
2878	0	2051	2048	2041	2041	
2879	0	2051	2049	2057	2054	
2880	0	2059	2050	2052	2049	
2881	0	2057	2046	2060	2045	
2882	0	2055	2054	2049	2057	
2883	0	2052	2051	2055	2043	
2884	0	2053	2046	2055	2053	
2885	0	2049	2053	2048	2046	
2886	0	2051	2048	2044	2049	
2887	0	2051	2046	2041	2054	
2888	0	2047	2051	2050	2043	
2889	0	2050	2048	2044	2054	
2890	0	2049	2051	2045	2040	
2891	0	2046	2050	2037	2050	
2892	0	2048	2042	2046	2046	
2893	0	2043	2054	2048	2035	
2894	0	2044	2044	2046	2052	
2895	0	2041	2043	2043	2041	
2896	0	2046	2048	2047	2045	
2897	0	2043	2050	2045	2057	
2898	0	2045	2046	2046	2042	
2899	0	2049	2054	2035	2053	
2900	0	2053	2050	2052	2055	
2901	0	2055	2051	2054	2046	
2902	0	2057	2049	2054	2051	
2903	0	2055	2056	2058	2057	
2904	0	2057	2050	2052	2043	
2905	0	2054	2047	2053	2048	
2906	0	2058	2052	2042	2057	
2907	0	2050	2049	2050	2046	
2908	0	2045	2044	2048	2050	
2909	0	2044	2052	2055	2046	
2910	0	2045	2044	2044	2039	
2911	0	2041	2043	2049	2052	
2912	0	2043	2051	2047	2044	
2913	0	2043	2048	2036	2036	
2914	0	2044	2042	2043	2051	
2915	0	2048	2049	2048	2049	
2916	0	2047	2051	2051	2040	
2917	0	2053	2045	2038	2052	
2918	0	2052	2055	2049	2043	
2919	0	2055	2054	2051	2046	
2920	0	2053	2046	2047	2052	
2921	0	2054	2052	2059	2043	
2922	0	2053	2048	2049	2054	
2923	0	2051	2048	2052	2061	
2924	0	2052	2053	2041	2044	
2925	0	2047	2050	2046	2053	
2926	0	2051	2047	2042	2052	
2927	0	2052	2053	2052	2038	
2928	0	2048	2053	2045	2050	
2929	0	2051	2046	2050	2047	
2930	0	2046	2050	2039	2051	
2931	0	2048	2048	2046	2055	
2932	0	2047	2044	2048	2037	
2933	0	2048	2052	2040	2054	
2934	0	2040	2044	2047	2043	
2935	0	2044	2049	2033	2044	
2936	0	2049	2046	2048	2053	
2937	0	2053	2046	2051	2038	
2938	0	2052	2055	2052	2049	
2939	0	2053	2051	2041	2048	
2940	0	2058	2050	2041	2042	
2941	0	2057	2054	2060	2055	
2942	0	2056	2048	2049	2052	
2943	0	2051	2046	2056	2045	
2944	0	2051	2048	2037	2055	
2945	0	2050	2053	2049	2045	
2946	0	2046	2048	2047	2049	
2947	0	2046	2046	2056	2056	
2948	0	2044	2051	2038	2045	
2949	0	2045	2047	2047	2050	
2950	0	2047	2041	2046	2038	
2951	0	2044	2048	2050	2041	
2952	0	2041	2047	2036	2047	
2953	0	2050	2044	2049	2033	
2954	0	2054	2052	2050	2049	
2955	0	2048	2050	2055	2039	
2956	0	2046	2044	2043	2039	
2957	0	2050	2047	2049	2053	
2958	0	2048	2058	2048	2038	
2959	0	2051	2044	2053	2055	
2960	0	2054	2044	2045	2053	
2961	0	2053	2054	2055	2049	
2962	0	2059	2061	2054	2057	
2963	0	2059	2056	2058	2042	
2964	0	2055	2057	2040	2057	
2965	0	2051	2051	2052	2046	
2966	0	2052	2052	2049	2048	
2967	0	2049	2054	2048	2054	
2968	0	2045	2046	2045	2043	
2969	0	2045	2054	2036	2048	
2970	0	2045	2047	2048	2049	
2971	0	2041	2040	2049	2043	
2972	0	2038	2045	2043	2048	
2973	0	2042	2040	2050	2039	
2974	0	2042	2044	2051	2038	
2975	0	2041	2042	2044	2036	
2976	0	2046	2048	2044	2037	
2977	0	2044	2051	2047	2043	
2978	0	2046	2051	2053	2042	
2979	0	2043	2049	2051	2047	
2980	0	2052	2042	2054	2049	
2981	0	2060	2055	2050	2051	
2982	0	2058	2049	2041	2058	
2983	0	2058	2054	2048	2060	
2984	0	2056	2049	2040	2062	
2985	0	2060	2051	2052	2059	
2986	0	2052	2052	2051	2055	
2987	0	2051	2050	2043	2057	
2988	0	2046	2052	2044	2055	
2989	0	2048	2051	2037	2044	
2990	0	2049	2048	2050	2043	
2991	0	2048	2047	2055	2038	
2992	0	2046	2049	2043	2038	
2993	0	2045	2050	2049	2042	
2994	0	2048	2052	2042	2040	
2995	0	2044	2046	2049	2047	
2996	0	2043	2046	2049	2052	
2997	0	2047	2046	2037	2044	
2998	0	2049	2052	2058	2040	
2999	0	2051	2052	2056	2051	
3000	0	2056	2049	2044	2052	
3001	0	2057	2050	2051	2061	
3002	0	2057	2050	2052	2066	
3003	0	2055	2048	2056	2055	
3004	0	2052	2051	2052	2045	
3005	0	2052	2053	2048	2054	
3006	0	2048	2044	2051	2052	
3007	0	2044	2048	2044	2043	
3008	0	2049	2051	2054	2054	
3009	0	2046	2050	2048	2042	
3010	0	2046	2046	2049	2034	
3011	0	2042	2056	2035	2046	
3012	0	2046	2054	2043	2037	
3013	0	2044	2052	2052	2028	
3014	0	2045	2043	2046	2046	
3015	0	2045	2053	2035	2044	
3016	0	2045	2047	2051	2037	
3017	0	2048	2042	2055	2057	
3018	0	2046	2039	2064	2060	
3019	0	2048	2041	2055	2062	
3020	0	2052	2039	2033	2072	
3021	0	2049	2043	2049	2062	
3022	0	2051	2047	2052	2052	
3023	0	2062	2044	2059	2062	
3024	0	2062	2055	2048	2044	
3025	0	2060	2057	2045	2038	
3026	0	2053	2047	2049	2048	
3027	0	2050	2048	2049	2034	
3028	0	2044	2056	2042	2051	
3029	0	2048	2051	2045	2035	
3030	0	2048	2050	2040	2034	
3031	0	2043	2050	2046	2046	
3032	0	2041	2049	2045	2038	
3033	0	2042	2042	2043	2042	
3034	0	2040	2050	2036	2050	
3035	0	2042	2046	2050	2038	
3036	0	2041	2043	2057	2052	
3037	0	2048	2050	2052	2044	
3038	0	2049	2048	2053	2050	
3039	0	2046	2047	2039	2052	
3040	0	2054	2049	2056	2045	
3041	0	2067	2052	2058	2043	
3042	0	2060	2058	2042	2040	
3043	0	2051	2048	2041	2061	
3044	0	2044	2044	2034	2051	
3045	0	2050	2050	2055	2049	
3046	0	2058	2054	2053	2052	
3047	0	2058	2051	2050	2039	
3048	0	2053	2057	2034	2051	
3049	0	2056	2050	2030	2044	
3050	0	2051	2046	2048	2047	
3051	0	2048	2052	2048	2053	
3052	0	2044	2047	2059	2043	
3053	0	2045	2043	2051	2052	
3054	0	2041	2048	2050	2045	
3055	0	2047	2047	2061	2040	
3056	0	2048	2050	2050	2049	
3057	0	2050	2052	2050	2030	
3058	0	2056	2046	2048	2048	
3059	0	2047	2048	2030	2041	
3060	0	2044	2045	2035	2056	
3061	0	2049	2052	2053	2046	
3062	0	2054	2053	2050	2057	
3063	0	2053	2051	2058	2060	
3064	0	2053	2053	2060	2046	
3065	0	2061	2052	2032	2057	
3066	0	2059	2050	2053	2044	
3067	0	2052	2052	2053	2052	
3068	0	2048	2046	2048	2052	
3069	0	2045	2046	2044	2042	
3070	0	2046	2049	2036	2052	
3071	0	2044	2044	2048	2038	
3072	0	2044	2046	2049	2048	
3073	0	2044	2048	2053	2036	
3074	0	2042	2042	2036	2048	
3075	0	2046	2044	2050	2047	
3076	0	2046	2054	2046	2037	
3077	0	2047	2048	2047	2046	
3078	0	2047	2048	2036	2038	
3079	0	2052	2055	2053	2048	
3080	0	2055	2048	2047	2053	
3081	0	2056	2045	2057	2046	
3082	0	2055	2053	2048	2067	
3083	0	2054	2047	2057	2057	
3084	0	2048	2051	2046	2054	
3085	0	2051	2049	2056	2058	
3086	0	2048	2054	2040	2050	
3087	0	2050	2048	2053	2039	
3088	0	2051	2049	2046	2050	
3089	0	2052	2055	2042	2037	
3090	0	2045	2047	2039	2031	
3091	0	2042	2047	2047	2050	
3092	0	2044	2046	2046	2034	
3093	0	2048	2048	2045	2046	
3094	0	2048	2043	2043	2060	
3095	0	2043	2041	2052	2053	
3096	0	2047	2044	2042	2064	
3097	0	2048	2041	2050	2058	
3098	0	2049	2043	2040	2053	
3099	0	2051	2052	2048	2054	
3100	0	2054	2052	2052	2034	
3101	0	2053	2052	2051	2050	
3102	0	2058	2056	2053	2041	
3103	0	2056	2055	2044	2048	
3104	0	2056	2052	2057	2050	
3105	0	2054	2051	2054	2042	
3106	0	2054	2050	2044	2053	
3107	0	2050	2047	2051	2042	
3108	0	2044	2049	2046	2048	
3109	0	2048	2048	2049	2043	
3110	0	2045	2047	2035	2032	
3111	0	2048	2054	2048	2049	
3112	0	2045	2049	2045	2035	
3113	0	2047	2046	2048	2048	
3114	0	2045	2059	2040	2045	
3115	0	2044	2046	2042	2043	
3116	0	2045	2038	2046	2052	
3117	0	2048	2050	2053	2043	
3118	0	2049	2049	2036	2057	
3119	0	2048	2046	2050	2058	
3120	0	2049	2051	2045	2047	
3121	0	2052	2050	2051	2063	
3122	0	2052	2048	2045	2049	
3123	0	2050	2052	2052	2045	
3124	0	2051	2052	2054	2046	
3125	0	2056	2046	2053	2040	
3126	0	2055	2055	2050	2050	
3127	0	2050	2052	2047	2039	
3128	0	2050	2045	2052	2054	
3129	0	2052	2053	2048	2042	
3130	0	2049	2051	2058	2046	
3131	0	2049	2048	2044	2039	
3132	0	2045	2048	2047	2046	
3133	0	2044	2042	2043	2046	
3134	0	2044	2043	2035	2044	
3135	0	2042	2045	2049	2055	
3136	0	2047	2045	2041	2043	
3137	0	2049	2048	2051	2058	
3138	0	2051	2055	2049	2046	
3139	0	2053	2049	2056	2042	
3140	0	2053	2046	2048	2053	
3141	0	2052	2054	2059	2043	
3142	0	2055	2049	2055	2059	
3143	0	2055	2052	2062	2047	
3144	0	2057	2060	2053	2056	
3145	0	2058	2047	2059	2058	
3146	0	2057	2049	2054	2040	
3147	0	2050	2050	2038	2049	
3148	0	2043	2043	2047	2040	
3149	0	2044	2042	2040	2060	
3150	0	2045	2048	2045	2046	
3151	0	2041	2040	2032	2052	
3152	0	2045	2039	2041	2050	
3153	0	2041	2051	2033	2037	
3154	0	2047	2041	2046	2048	
3155	0	2047	2045	2046	2033	
3156	0	2046	2050	2047	2050	
3157	0	2045	2049	2037	2038	
3158	0	2049	2050	2035	2041	
3159	0	2049	2047	2040	2046	
3160	0	2057	2046	2041	2040	
3161	0	2055	2053	2055	2055	
3162	0	2055	2053	2055	2045	
3163	0	2057	2050	2067	2045	
3164	0	2056	2052	2060	2058	
3165	0	2054	2049	2055	2050	
3166	0	2054	2048	2047	2051	
3167	0	2048	2045	2053	2058	
3168	0	2051	2055	2053	2046	
3169	0	2053	2053	2044	2045	
3170	0	2049	2050	2058	2053	
3171	0	2044	2043	2043	2038	
3172	0	2041	2049	2045	2046	
3173	0	2042	2048	2036	2050	
3174	0	2045	2046	2044	2037	
3175	0	2043	2055	2043	2037	
3176	0	2043	2049	2032	2045	
3177	0	2047	2046	2042	2034	
3178	0	2051	2049	2039	2043	
3179	0	2053	2058	2043	2048	
3180	0	2053	2049	2032	2043	
3181	0	2052	2050	2053	2056	
3182	0	2052	2049	2045	2050	
3183	0	2052	2047	2050	2045	
3184	0	2055	2047	2036	2061	
3185	0	2056	2047	2050	2055	
3186	0	2056	2049	2057	2048	
3187	0	2051	2046	2062	2057	
3188	0	2050	2048	2049	2044	
3189	0	2054	2050	2056	2054	
3190	0	2053	2047	2052	2050	
3191	0	2048	2042	2045	2048	
3192	0	2039	2053	2045	2062	
3193	0	2037	2048	2047	2044	
3194	0	2043	2046	2050	2041	
3195	0	2045	2058	2041	2038	
3196	0	2043	2051	2049	2035	
3197	0	2051	2045	2046	2048	
3198	0	2048	2057	2052	2037	
3199	0	2048	2046	2042	2049	
3200	0	2054	2048	2058	2050	
3201	0	2054	2053	2052	2042	
3202	0	2054	2052	2040	2055	
3203	0	2053	2047	2057	2051	
3204	0	2053	2046	2051	2045	
3205	0	2046	2054	2060	2051	
3206	0	2042	2048	2045	2045	
3207	0	2043	2046	2050	2049	
3208	0	2046	2053	2046	2052	
3209	0	2048	2049	2035	2043	
3210	0	2047	2043	2046	2049	
3211	0	2050	2045	2044	2050	
3212	0	2050	2050	2040	2038	
3213	0	2051	2048	2043	2050	
3214	0	2047	2043	2045	2039	
3215	0	2047	2047	2050	2038	
3216	0	2050	2053	2034	2053	
3217	0	2046	2050	2049	2053	
3218	0	2049	2045	2045	2045	
3219	0	2050	2055	2052	2064	
3220	0	2050	2051	2035	2046	
3221	0	2054	2049	2040	2045	
3222	0	2055	2059	2049	2049	
3223	0	2059	2053	2063	2060	
3224	0	2061	2050	2058	2060	
3225	0	2062	2055	2063	2043	
3226	0	2056	2054	2056	2047	
3227	0	2049	2052	2063	2051	
3228	0	2050	2046	2050	2046	
3229	0	2047	2045	2043	2034	
3230	0	2042	2050	2055	2047	
3231	0	2038	2045	2044	2052	
3232	0	2038	2040	2029	2044	
3233	0	2039	2042	2035	2039	
3234	0	2045	2045	2022	2038	
3235	0	2046	2049	2032	2044	
3236	0	2046	2053	2040	2049	
3237	0	2053	2054	2046	2050	
3238	0	2054	2053	2054	2050	
3239	0	2053	2049	2048	2050	
3240	0	2050	2051	2054	2056	
3241	0	2050	2054	2052	2054	
3242	0	2056	2055	2049	2049	
3243	0	2055	2050	2061	2049	
3244	0	2052	2045	2056	2048	
3245	0	2050	2047	2041	2053	
3246	0	2049	2048	2047	2058	
3247	0	2049	2054	2051	2059	
3248	0	2048	2055	2045	2054	
3249	0	2049	2050	2048	2050	
3250	0	2048	2048	2040	2047	
3251	0	2048	2048	2049	2042	
3252	0	2044	2046	2049	2040	
3253	0	2046	2048	2047	2038	
3254	0	2046	2052	2051	2037	
3255	0	2048	2050	2056	2041	
3256	0	2048	2045	2055	2043	
3257	0	2044	2044	2048	2050	
3258	0	2049	2043	2038	2049	
3259	0	2053	2048	2045	2055	
3260	0	2053	2050	2049	2050	
3261	0	2054	2053	2045	2043	
3262	0	2054	2054	2048	2042	
3263	0	2054	2049	2045	2041	
3264	0	2053	2048	2050	2039	
3265	0	2048	2051	2046	2045	
3266	0	2051	2050	2039	2048	
3267	0	2048	2057	2049	2046	
3268	0	2050	2051	2051	2049	
3269	0	2048	2043	2054	2048	
3270	0	2044	2038	2052	2044	
3271	0	2044	2040	2045	2048	
3272	0	2039	2043	2047	2053	
3273	0	2040	2048	2040	2050	
3274	0	2040	2052	2051	2050	
3275	0	2047	2053	2052	2053	
3276	0	2046	2047	2043	2047	
3277	0	2049	2046	2051	2042	
3278	0	2056	2046	2056	2040	
3279	0	2057	2048	2052	2042	
3280	0	2053	2053	2053	2045	
3281	0	2057	2056	2042	2041	
3282	0	2057	2057	2046	2047	
3283	0	2055	2051	2048	2047	
3284	0	2053	2054	2051	2049	
3285	0	2055	2048	2051	2055	
3286	0	2050	2050	2036	2059	
3287	0	2046	2053	2053	2052	
3288	0	2044	2043	2050	2055	
3289	0	2045	2036	2042	2040	
3290	0	2044	2042	2051	2032	
3291	0	2046	2043	2049	2033	
3292	0	2047	2049	2037	2035	
3293	0	2052	2058	2052	2041	
3294	0	2050	2055	2053	2055	
3295	0	2045	2048	2039	2060	
3296	0	2042	2049	2047	2067	
3297	0	2049	2053	2046	2059	
3298	0	2057	2059	2037	2049	
3299	0	2042	2038	2046	2055	
3300	0	2047	2038	2041	2050	
3301	0	2045	2044	2032	2042	
3302	0	2050	2061	2051	2040	
3303	0	2056	2061	2052	2039	
3304	0	2058	2063	2053	2038	
3305	0	2055	2055	2046	2040	
3306	0	2054	2051	2040	2049	
3307	0	2051	2051	2048	2049	
3308	0	2054	2049	2054	2049	
3309	0	2052	2051	2044	2041	
3310	0	2045	2052	2054	2042	
3311	0	2046	2051	2057	2040	
3312	0	2043	2041	2050	2045	
3313	0	2044	2040	2058	2050	
3314	0	2047	2040	2055	2054	
3315	0	2050	2042	2048	2053	
3316	0	2051	2045	2059	2059	
3317	0	2052	2048	2060	2060	
3318	0	2052	2043	2053	2061	
3319	0	2051	2040	2055	2055	
3320	0	2055	2051	2057	2046	
3321	0	2055	2059	2044	2045	
3322	0	2051	2054	2046	2048	
3323	0	2050	2047	2047	2045	
3324	0	2049	2044	2047	2049	
3325	0	2047	2045	2047	2050	
3326	0	2049	2049	2036	2053	
3327	0	2046	2047	2048	2051	
3328	0	2050	2048	2050	2058	
3329	0	2046	2052	2050	2054	
3330	0	2047	2045	2044	2053	
3331	0	2047	2042	2035	2053	
3332	0	2046	2049	2046	2046	
3333	0	2047	2046	2036	2043	
3334	0	2045	2046	2044	2033	
3335	0	2049	2046	2047	2054	
3336	0	2048	2045	2049	2042	
3337	0	2047	2051	2044	2040	
3338	0	2049	2048	2057	2053	
3339	0	2050	2047	2050	2047	
3340	0	2050	2053	2037	2047	
3341	0	2048	2048	2041	2059	
3342	0	2049	2047	2043	2046	
3343	0	2055	2056	2046	2057	
3344	0	2051	2052	2033	2047	
3345	0	2055	2053	2051	2037	
3346	0	2056	2057	2053	2048	
3347	0	2054	2053	2060	2035	
3348	0	2054	2048	2044	2052	
3349	0	2051	2049	2058	2050	
3350	0	2046	2047	2050	2057	
3351	0	2047	2043	2037	2057	
3352	0	2045	2040	2046	2055	
3353	0	2043	2048	2048	2040	
3354	0	2038	2047	2033	2037	
3355	0	2042	2046	2050	2051	
3356	0	2044	2042	2053	2041	
3357	0	2046	2056	2046	2031	
3358	0	2046	2050	2053	2039	
3359	0	2046	2050	2043	2041	
3360	0	2048	2047	2043	2044	
3361	0	2054	2052	2052	2056	
3362	0	2062	2052	2050	2068	
3363	0	2069	2056	2054	2035	
3364	0	2063	2056	2046	2056	
3365	0	2057	2050	2056	2050	
3366	0	2055	2049	2051	2057	
3367	0	2050	2056	2044	2056	
3368	0	2045	2048	2042	2047	
3369	0	2046	2053	2041	2052	
3370	0	2046	2050	2041	2038	
3371	0	2046	2050	2046	2046	
3372	0	2047	2050	2057	2035	
3373	0	2039	2047	2038	2039	
3374	0	2038	2040	2045	2052	
3375	0	2041	2055	2052	2036	
3376	0	2041	2046	2051	2048	
3377	0	2051	2047	2044	2045	
3378	0	2050	2050	2042	2039	
3379	0	2054	2046	2046	2058	
3380	0	2055	2047	2044	2048	
3381	0	2056	2050	2049	2044	
3382	0	2056	2052	2050	2055	
3383	0	2055	2049	2058	2050	
3384	0	2055	2050	2060	2040	
3385	0	2052	2053	2043	2057	
3386	0	2054	2050	2050	2051	
3387	0	2049	2045	2047	2045	
3388	0	2046	2054	2051	2058	
3389	0	2041	2044	2038	2041	
3390	0	2043	2041	2049	2050	
3391	0	2046	2050	2044	2050	
3392	0	2048	2050	2050	2038	
3393	0	2046	2043	2038	2053	
3394	0	2043	2052	2052	2039	
3395	0	2046	2045	2047	2033	
3396	0	2040	2045	2033	2043	
3397	0	2047	2045	2043	2054	
3398	0	2047	2050	2038	2051	
3399	0	2046	2048	2038	2056	
3400	0	2051	2050	2043	2054	
3401	0	2051	2052	2056	2049	
3402	0	2055	2056	2057	2045	
3403	0	2055	2049	2047	2048	
3404	0	2056	2046	2051	2052	
3405	0	2056	2044	2049	2056	
3406	0	2054	2050	2049	2050	
3407	0	2055	2054	2048	2043	
3408	0	2052	2055	2039	2048	
3409	0	2047	2054	2046	2056	
3410	0	2042	2049	2045	2058	
3411	0	2040	2046	2044	2049	
3412	0	2046	2050	2047	2041	
3413	0	2047	2047	2047	2045	
3414	0	2046	2043	2048	2054	
3415	0	2047	2042	2039	2042	
3416	0	2048	2046	2050	2040	
3417	0	2050	2051	2043	2034	
3418	0	2053	2053	2049	2040	
3419	0	2051	2049	2049	2041	
3420	0	2056	2052	2056	2041	
3421	0	2055	2058	2059	2038	
3422	0	2055	2058	2055	2042	
3423	0	2057	2057	2054	2037	
3424	0	2050	2050	2041	2037	
3425	0	2050	2050	2052	2039	
3426	0	2053	2041	2048	2044	
3427	0	2047	2042	2043	2046	
3428	0	2046	2043	2052	2055	
3429	0	2047	2050	2056	2055	
3430	0	2049	2050	2052	2057	
3431	0	2044	2050	2049	2055	
3432	0	2047	2046	2035	2056	
3433	0	2042	2044	2038	2054	
3434	0	2041	2043	2040	2053	
3435	0	2047	2050	2049	2052	
3436	0	2047	2052	2046	2050	
3437	0	2047	2055	2037	2051	
3438	0	2051	2055	2045	2042	
3439	0	2050	2052	2048	2046	
3440	0	2054	2044	2051	2043	
3441	0	2056	2049	2052	2040	
3442	0	2059	2051	2049	2043	
3443	0	2058	2053	2057	2046	
3444	0	2054	2047	2056	2049	
3445	0	2055	2049	2047	2052	
3446	0	2053	2045	2051	2051	
3447	0	2050	2049	2043	2056	
3448	0	2047	2051	2049	2053	
3449	0	2040	2046	2053	2055	
3450	0	2037	2042	2051	2051	
3451	0	2038	2044	2047	2040	
3452	0	2039	2048	2031	2035	
3453	0	2042	2054	2044	2037	
3454	0	2046	2051	2041	2041	
3455	0	2048	2046	2046	2043	
3456	0	2042	2045	2053	2050	
3457	0	2054	2046	2053	2047	
3458	0	2055	2049	2043	2051	
3459	0	2056	2050	2052	2051	
3460	0	2053	2053	2053	2054	
3461	0	2054	2055	2040	2056	
3462	0	2056	2050	2048	2058	
3463	0	2055	2045	2052	2058	
3464	0	2055	2047	2052	2057	
3465	0	2056	2049	2054	2056	
3466	0	2051	2052	2045	2057	
3467	0	2051	2051	2050	2054	
3468	0	2050	2054	2051	2045	
3469	0	2047	2051	2041	2039	
3470	0	2047	2046	2046	2041	
3471	0	2045	2045	2035	2037	
3472	0	2040	2044	2046	2034	
3473	0	2045	2049	2051	2032	
3474	0	2044	2048	2045	2034	
3475	0	2045	2054	2049	2039	
3476	0	2042	2049	2037	2040	
3477	0	2047	2040	2054	2045	
3478	0	2050	2048	2055	2045	
3479	0	2049	2043	2042	2053	
3480	0	2052	2044	2052	2056	
3481	0	2060	2049	2052	2053	
3482	0	2062	2057	2063	2057	
3483	0	2062	2054	2056	2061	
3484	0	2058	2048	2046	2057	
3485	0	2053	2050	2055	2044	
3486	0	2049	2049	2055	2045	
3487	0	2046	2053	2051	2053	
3488	0	2047	2045	2042	2055	
3489	0	2046	2048	2047	2049	
3490	0	2050	2056	2043	2036	
3491	0	2049	2047	2027	2046	
3492	0	2042	2044	2040	2045	
3493	0	2042	2055	2032	2032	
3494	0	2039	2050	2023	2053	
3495	0	2041	2043	2030	2047	
3496	0	2042	2043	2051	2039	
3497	0	2047	2052	2048	2052	
3498	0	2056	2048	2043	2046	
3499	0	2052	2046	2046	2039	
3500	0	2059	2056	2054	2057	
3501	0	2059	2051	2062	2048	
3502	0	2056	2048	2049	2043	
3503	0	2058	2055	2062	2056	
3504	0	2058	2054	2054	2046	
3505	0	2056	2051	2046	2041	
3506	0	2055	2050	2052	2052	
3507	0	2048	2053	2050	2054	
3508	0	2044	2046	2053	2044	
3509	0	2047	2044	2043	2054	
3510	0	2041	2045	2053	2045	
3511	0	2043	2046	2047	2041	
3512	0	2042	2045	2054	2046	
3513	0	2050	2050	2048	2037	
3514	0	2041	2042	2043	2052	
3515	0	2045	2042	2048	2039	
3516	0	2043	2050	2051	2047	
3517	0	2046	2047	2039	2049	
3518	0	2047	2042	2051	2041	
3519	0	2048	2052	2054	2060	
3520	0	2055	2053	2055	2046	
3521	0	2054	2052	2040	2058	
3522	0	2054	2056	2053	2050	
3523	0	2053	2055	2049	2044	
3524	0	2058	2051	2051	2053	
3525	0	2049	2058	2042	2045	
3526	0	2051	2050	2050	2055	
3527	0	2050	2049	2044	2053	
3528	0	2051	2055	2051	2037	
3529	0	2052	2049	2049	2048	
3530	0	2047	2045	2041	2043	
3531	0	2041	2043	2046	2038	
3532	0	2040	2046	2034	2056	
3533	0	2042	2046	2043	2051	
3534	0	2047	2043	2053	2038	
3535	0	2050	2054	2055	2051	
3536	0	2044	2048	2043	2040	
3537	0	2048	2041	2058	2053	
3538	0	2054	2056	2058	2047	
3539	0	2051	2047	2056	2046	
3540	0	2053	2047	2045	2056	
3541	0	2049	2049	2034	2042	
3542	0	2050	2047	2050	2060	
3543	0	2056	2047	2050	2056	
3544	0	2057	2051	2052	2044	
3545	0	2056	2050	2044	2057	
3546	0	2052	2045	2045	2039	
3547	0	2052	2055	2052	2036	
3548	0	2053	2053	2045	2046	
3549	0	2052	2048	2054	2036	
3550	0	2051	2053	2049	2043	
3551	0	2040	2046	2037	2055	
3552	0	2041	2044	2044	2042	
3553	0	2044	2047	2049	2040	
3554	0	2048	2051	2048	2049	
3555	0	2044	2042	2037	2041	
3556	0	2044	2046	2056	2047	
3557	0	2050	2048	2052	2048	
3558	0	2048	2047	2045	2039	
3559	0	2041	2049	2043	2059	
3560	0	2048	2043	2043	2046	
3561	0	2052	2049	2053	2056	
3562	0	2053	2047	2047	2048	
3563	0	2052	2042	2053	2053	
3564	0	2053	2049	2038	2056	
3565	0	2055	2050	2050	2039	
3566	0	2055	2052	2051	2055	
3567	0	2050	2056	2047	2042	
3568	0	2046	2050	2049	2061	
3569	0	2052	2050	2040	2043	
3570	0	2053	2051	2051	2052	
3571	0	2051	2047	2054	2041	
3572	0	2046	2053	2050	2046	
3573	0	2043	2050	2046	2046	
3574	0	2041	2042	2033	2039	
3575	0	2045	2050	2043	2052	
3576	0	2047	2050	2042	2034	
3577	0	2045	2052	2048	2047	
3578	0	2051	2050	2040	2046	
3579	0	2052	2053	2057	2035	
3580	0	2054	2048	2050	2052	
3581	0	2054	2049	2051	2047	
3582	0	2057	2057	2048	2050	
3583	0	2058	2053	2059	2064	
3584	0	2057	2050	2055	2050	
3585	0	2054	2049	2055	2062	
3586	0	2046	2045	2053	2057	
3587	0	2047	2044	2049	2039	
3588	0	2045	2044	2053	2053	
3589	0	2043	2045	2039	2035	
3590	0	2048	2046	2054	2046	
3591	0	2043	2050	2044	2043	
3592	0	2045	2050	2043	2035	
3593	0	2045	2046	2042	2049	
3594	0	2046	2046	2049	2044	
3595	0	2043	2055	2042	2040	
3596	0	2047	2046	2039	2051	
3597	0	2048	2048	2040	2041	
3598	0	2053	2047	2051	2054	
3599	0	2055	2044	2051	2047	
3600	0	2055	2049	2047	2046	
3601	0	2053	2050	2054	2057	
3602	0	2053	2053	2056	2043	
3603	0	2055	2051	2053	2036	
3604	0	2053	2054	2052	2059	
3605	0	2055	2055	2053	2046	
3606	0	2053	2047	2040	2051	
3607	0	2053	2045	2051	2061	
3608	0	2046	2044	2044	2048	
3609	0	2051	2044	2043	2044	
3610	0	2044	2046	2046	2047	
3611	0	2038	2045	2047	2037	
3612	0	2040	2043	2045	2047	
3613	0	2043	2048	2041	2043	
3614	0	2047	2052	2038	2037	
3615	0	2047	2050	2054	2046	
3616	0	2053	2054	2049	2034	
3617	0	2048	2051	2046	2050	
3618	0	2047	2040	2050	2051	
3619	0	2044	2037	2050	2047	
3620	0	2050	2046	2058	2061	
3621	0	2053	2046	2055	2045	
3622	0	2053	2047	2059	2057	
3623	0	2055	2056	2059	2056	
3624	0	2054	2051	2053	2047	
3625	0	2046	2043	2039	2058	
3626	0	2051	2051	2049	2043	
3627	0	2054	2047	2034	2057	
3628	0	2045	2044	2041	2043	
3629	0	2051	2057	2034	2040	
3630	0	2051	2049	2046	2046	
3631	0	2046	2044	2044	2040	
3632	0	2042	2049	2040	2052	
3633	0	2041	2039	2036	2034	
3634	0	2045	2046	2054	2053	
3635	0	2045	2053	2048	2040	
3636	0	2046	2047	2056	2052	
3637	0	2046	2047	2042	2042	
3638	0	2044	2051	2054	2048	
3639	0	2052	2046	2052	2056	
3640	0	2055	2046	2053	2044	
3641	0	2059	2052	2044	2053	
3642	0	2056	2050	2051	2041	
3643	0	2055	2054	2056	2048	
3644	0	2058	2056	2046	2051	
3645	0	2060	2055	2054	2042	
3646	0	2054	2051	2048	2043	
3647	0	2052	2048	2040	2055	
3648	0	2054	2052	2053	2045	
3649	0	2046	2047	2048	2038	
3650	0	2041	2041	2045	2051	
3651	0	2036	2047	2042	2044	
3652	0	2038	2046	2041	2033	
3653	0	2041	2049	2046	2044	
3654	0	2049	2046	2042	2040	
3655	0	2048	2052	2033	2036	
3656	0	2047	2049	2042	2050	
3657	0	2046	2047	2036	2045	
3658	0	2051	2049	2054	2041	
3659	0	2053	2054	2053	2062	
3660	0	2054	2049	2056	2056	
3661	0	2054	2049	2056	2051	
3662	0	2052	2047	2054	2052	
3663	0	2056	2055	2062	2065	
3664	0	2054	2054	2048	2056	
3665	0	2051	2050	2052	2058	
3666	0	2045	2043	2054	2064	
3667	0	2044	2046	2042	2055	
3668	0	2045	2044	2050	2047	
3669	0	2047	2044	2046	2058	
3670	0	2050	2047	2045	2050	
3671	0	2051	2050	2050	2038	
3672	0	2055	2042	2065	2055	
3673	0	2057	2048	2058	2045	
3674	0	2047	2046	2056	2054	
3675	0	2046	2042	2049	2055	
3676	0	2045	2041	2048	2051	
3677	0	2047	2049	2052	2058	
3678	0	2046	2047	2036	2055	
3679	0	2048	2044	2048	2041	
3680	0	2051	2056	2049	2057	
3681	0	2057	2055	2053	2050	
3682	0	2055	2053	2042	2036	
3683	0	2052	2053	2054	2045	
3684	0	2057	2059	2044	2045	
3685	0	2056	2052	2041	2032	
3686	0	2052	2057	2029	2044	
3687	0	2048	2057	2035	2030	
3688	0	2046	2048	2031	2041	
3689	0	2044	2056	2038	2033	
3690	0	2043	2048	2034	2024	
3691	0	2040	2041	2041	2042	
3692	0	2038	2048	2040	2037	
3693	0	2037	2046	2031	2037	
3694	0	2032	2038	2031	2047	
3695	0	2041	2039	2032	2039	
3696	0	2049	2046	2036	2043	
3697	0	2047	2043	2036	2050	
3698	0	2050	2046	2050	2047	
3699	0	2047	2047	2042	2045	
3700	0	2046	2046	2049	2065	
3701	0	2054	2044	2046	2053	
3702	0	2053	2047	2060	2047	
3703	0	2057	2054	2059	2056	
3704	0	2058	2053	2062	2050	
3705	0	2058	2056	2048	2061	
3706	0	2048	2049	2046	2050	
3707	0	2046	2051	2053	2062	
3708	0	2050	2049	2055	2058	
3709	0	2063	2057	2054	2050	
3710	0	2055	2048	2053	2049	
3711	0	2043	2039	2052	2050	
3712	0	2043	2040	2044	2050	
3713	0	2047	2042	2045	2044	
3714	0	2048	2042	2043	2042	
3715	0	2047	2043	2050	2045	
3716	0	2044	2045	2053	2042	
3717	0	2046	2043	2051	2039	
3718	0	2048	2059	2049	2033	
3719	0	2056	2067	2045	2038	
3720	0	2058	2057	2058	2050	
3721	0	2057	2051	2055	2055	
3722	0	2058	2050	2045	2056	
3723	0	2059	2051	2053	2051	
3724	0	2057	2048	2056	2040	
3725	0	2056	2053	2054	2044	
3726	0	2053	2054	2049	2052	
3727	0	2050	2052	2045	2056	
3728	0	2047	2044	2052	2057	
3729	0	2048	2047	2050	2050	
3730	0	2044	2044	2053	2038	
3731	0	2047	2041	2050	2037	
3732	0	2044	2040	2059	2056	
3733	0	2047	2048	2063	2060	
3734	0	2038	2052	2054	2054	
3735	0	2043	2054	2054	2047	
3736	0	2047	2053	2042	2042	
3737	0	2046	2043	2046	2057	
3738	0	2053	2044	2042	2064	
3739	0	2049	2042	2036	2061	
3740	0	2049	2048	2040	2053	
3741	0	2052	2047	2041	2039	
3742	0	2054	2048	2051	2050	
3743	0	2058	2057	2050	2050	
3744	0	2053	2056	2038	2045	
3745	0	2052	2056	2047	2044	
3746	0	2048	2054	2048	2040	
3747	0	2052	2052	2055	2043	
3748	0	2052	2055	2052	2047	
3749	0	2049	2054	2044	2041	
3750	0	2047	2049	2052	2034	
3751	0	2042	2044	2045	2031	
3752	0	2044	2042	2040	2026	
3753	0	2046	2046	2050	2041	
3754	0	2046	2044	2048	2052	
3755	0	2049	2043	2055	2056	
3756	0	2044	2038	2048	2051	
3757	0	2044	2032	2036	2051	
3758	0	2045	2035	2048	2065	
3759	0	2045	2039	2046	2060	
3760	0	2053	2057	2048	2037	
3761	0	2056	2064	2048	2032	
3762	0	2060	2067	2052	2058	
3763	0	2056	2060	2059	2062	
3764	0	2053	2063	2058	2053	
3765	0	2051	2060	2043	2047	
3766	0	2051	2056	2056	2054	
3767	0	2050	2024	2064	2059	
3768	0	2047	2017	2042	2050	
3769	0	2044	2035	2039	2035	
3770	0	2038	2037	2029	2032	
3771	0	2034	2033	2033	2025	
3772	0	2047	2041	2041	2026	
3773	0	2047	2036	2045	2062	
3774	0	2032	2032	2042	2050	
3775	0	2039	2048	2045	2045	
3776	0	2053	2054	2048	2046	
3777	0	2054	2057	2049	2041	
3778	0	2059	2076	2043	2039	
3779	0	2060	2072	2054	2052	
3780	0	2062	2061	2057	2063	
3781	0	2056	2050	2048	2062	
3782	0	2058	2044	2063	2051	
3783	0	2056	2055	2059	2040	
3784	0	2057	2058	2055	2037	
3785	0	2057	2061	2055	2039	
3786	0	2052	2051	2051	2050	
3787	0	2052	2045	2041	2047	
3788	0	2048	2049	2048	2053	
3789	0	2045	2048	2042	2041	
3790	0	2044	2040	2045	2041	
3791	0	2040	2043	2037	2043	
3792	0	2044	2047	2047	2050	
3793	0	2042	2049	2050	2053	
3794	0	2047	2047	2041	2054	
3795	0	2041	2037	2044	2054	
3796	0	2040	2040	2050	2040	
3797	0	2051	2048	2053	2034	
3798	0	2046	2051	2048	2041	
3799	0	2049	2052	2049	2048	
3800	0	2052	2053	2052	2054	
3801	0	2049	2045	2052	2056	
3802	0	2054	2047	2054	2056	
3803	0	2054	2039	2045	2046	
3804	0	2044	2037	2050	2054	
3805	0	2044	2042	2046	2054	
3806	0	2050	2051	2056	2041	
3807	0	2060	2055	2046	2051	
3808	0	2057	2056	2051	2057	
3809	0	2050	2060	2044	2045	
3810	0	2050	2053	2040	2061	
3811	0	2043	2046	2042	2037	
3812	0	2035	2042	2034	2041	
3813	0	2036	2035	2040	2050	
3814	0	2040	2038	2036	2047	
3815	0	2045	2052	2049	2057	
3816	0	2051	2056	2044	2040	
3817	0	2054	2058	2058	2027	
3818	0	2063	2070	2046	2040	
3819	0	2057	2056	2055	2049	
3820	0	2052	2049	2055	2050	
3821	0	2050	2046	2046	2061	
3822	0	2052	2052	2055	2044	
3823	0	2049	2041	2047	2049	
3824	0	2046	2039	2041	2053	
3825	0	2050	2047	2045	2034	
3826	0	2048	2037	2054	2053	
3827	0	2054	2043	2063	2040	
3828	0	2057	2056	2056	2012	
3829	0	2052	2058	2051	2037	
3830	0	2047	2073	2040	2067	
3831	0	2057	2072	2061	2052	
3832	0	2049	2052	2049	2043	
3833	0	2035	2013	2038	2040	
3834	0	2023	2002	2036	2056	
3835	0	2028	2017	2034	2069	
3836	0	2052	2058	2048	2039	
3837	0	2067	2072	2043	2037	
3838	0	2062	2062	2052	2054	
3839	0	2050	2047	2046	2055	
3840	0	2038	2039	2028	2064	
3841	0	2040	2041	2038	2072	
3842	0	2044	2047	2045	2055	
3843	0	2053	2054	2058	2043	
3844	0	2064	2079	2055	2054	
3845	0	2061	2072	2063	2054	
3846	0	2054	2042	2056	2047	
3847	0	2053	2041	2046	2045	
3848	0	2061	2055	2047	2034	
3849	0	2055	2052	2047	2037	
3850	0	2052	2058	2050	2043	
3851	0	2061	2074	2045	2029	
3852	0	2048	2055	2047	2033	
3853	0	2040	2042	2041	2052	
3854	0	2042	2051	2039	2040	
3855	0	2042	2045	2053	2035	
3856	0	2040	2042	2050	2056	
3857	0	2043	2040	2052	2047	
3858	0	2050	2045	2063	2040	
3859	0	2053	2043	2059	2062	
3860	0	2054	2041	2068	2054	
3861	0	2059	2047	2051	2055	
3862	0	2053	2045	2053	2051	
3863	0	2048	2032	2043	2036	
3864	0	2048	2040	2038	2048	
3865	0	2055	2058	2050	2058	
3866	0	2058	2058	2045	2055	
3867	0	2054	2049	2044	2054	
3868	0	2044	2045	2033	2043	
3869	0	2036	2036	2043	2054	
3870	0	2045	2049	2043	2047	
3871	0	2048	2052	2046	2045	
3872	0	2046	2048	2033	2052	
3873	0	2039	2063	2038	2043	
3874	0	2048	2068	2047	2042	
3875	0	2052	2061	2044	2029	
3876	0	2043	2034	2050	2032	
3877	0	2029	2008	2041	2085	
3878	0	2047	2038	2045	2063	
3879	0	2051	2053	2034	2034	
3880	0	2054	2054	2046	2036	
3881	0	2038	2024	2051	2040	
3882	0	2038	2005	2045	2048	
3883	0	2046	2020	2060	2036	
3884	0	2044	2011	2055	2052	
3885	0	2057	2057	2045	2040	
3886	0	2072	2105	2059	2057	
3887	0	2069	2115	2053	2072	
3888	0	2067	2086	2062	2023	
3889	0	2052	2072	2057	2042	
3890	0	2046	2068	2048	2063	
3891	0	2052	2056	2038	2043	
3892	0	2060	2059	2028	2044	
3893	0	2028	2029	2032	2052	
3894	0	2026	2038	2036	2054	
3895	0	2033	2037	2034	2071	
3896	0	2037	2035	2022	2055	
3897	0	2051	2050	2044	2051	
3898	0	2063	2069	2051	2046	
3899	0	2064	2065	2040	2028	
3900	0	2057	2055	2047	2051	
3901	0	2052	2054	2050	2058	
3902	0	2063	2059	2058	2045	
3903	0	2066	2054	2071	2054	
3904	0	2064	2045	2077	2052	
3905	0	2063	2050	2075	2030	
3906	0	2054	2046	2079	2046	
3907	0	2047	2039	2065	2041	
3908	0	2047	2040	2053	2042	
3909	0	2044	2043	2052	2056	
3910	0	2042	2043	2052	2040	
3911	0	2037	2046	2045	2044	
3912	0	2035	2046	2029	2046	
3913	0	2040	2038	2041	2065	
3914	0	2049	2038	2043	2047	
3915	0	2043	2046	2028	2047	
3916	0	2049	2052	2043	2041	
3917	0	2051	2054	2051	2033	
3918	0	2050	2062	2041	2032	
3919	0	2051	2055	2053	2040	
3920	0	2046	2035	2048	2060	
3921	0	2043	2030	2027	2072	
3922	0	2044	2039	2049	2073	
3923	0	2054	2044	2052	2066	
3924	0	2060	2047	2049	2051	
3925	0	2069	2052	2059	2044	
3926	0	2060	2052	2059	2046	
3927	0	2051	2046	2056	2045	
3928	0	2039	2044	2038	2062	
3929	0	2040	2048	2049	2045	
3930	0	2049	2045	2048	2045	
3931	0	2046	2047	2037	2049	
3932	0	2040	2048	2043	2035	
3933	0	2042	2044	2040	2038	
3934	0	2036	2038	2032	2037	
3935	0	2047	2043	2046	2017	
3936	0	2050	2060	2045	2026	
3937	0	2043	2045	2042	2061	
3938	0	2044	2047	2044	2047	
3939	0	2049	2049	2043	2052	
3940	0	2048	2049	2044	2051	
3941	0	2057	2058	2040	2036	
3942	0	2060	2065	2049	2042	
3943	0	2044	2080	2042	2028	
3944	0	2043	2067	2036	2030	
3945	0	2051	2061	2044	2069	
3946	0	2051	2040	2055	2047	
3947	0	2056	2041	2060	2057	
3948	0	2051	2036	2048	2053	
3949	0	2053	2034	2056	2045	
3950	0	2050	2043	2060	2085	
3951	0	2047	2036	2067	2065	
3952	0	2052	2036	2050	2041	
3953	0	2045	2043	2049	2044	
3954	0	2041	2040	2047	2038	
3955	0	2046	2042	2049	2055	
3956	0	2045	2050	2039	2049	
3957	0	2049	2048	2051	2031	
3958	0	2059	2054	2053	2030	
3959	0	2052	2042	2044	2043	
3960	0	2043	2038	2037	2053	
3961	0	2042	2042	2041	2076	
3962	0	2051	2050	2050	2055	
3963	0	2059	2058	2038	2035	
3964	0	2060	2059	2054	2051	
3965	0	2063	2063	2057	2046	
3966	0	2058	2056	2059	2045	
3967	0	2056	2055	2053	2034	
3968	0	2054	2054	2056	2049	
3969	0	2051	2044	2055	2054	
3970	0	2045	2043	2048	2044	
3971	0	2044	2040	2034	2058	
3972	0	2033	2038	2038	2059	
3973	0	2028	2027	2034	2048	
3974	0	2042	2035	2048	2059	
3975	0	2045	2041	2039	2053	
3976	0	2042	2038	2056	2053	
3977	0	2052	2041	2063	2051	
3978	0	2054	2063	2050	2026	
3979	0	2066	2073	2056	2018	
3980	0	2052	2063	2058	2042	
3981	0	2041	2044	2047	2049	
3982	0	2034	2045	2026	2054	
3983	0	2052	2052	2057	2046	
3984	0	2070	2055	2062	2031	
3985	0	2060	2057	2055	2053	
3986	0	2046	2046	2038	2053	
3987	0	2047	2040	2042	2040	
3988	0	2054	2052	2043	2047	
3989	0	2046	2041	2033	2035	
3990	0	2037	2024	2033	2074	
3991	0	2039	2025	2028	2067	
3992	0	2040	2044	2026	2041	
3993	0	2050	2062	2043	2044	
3994	0	2051	2062	2052	2052	
3995	0	2051	2053	2042	2057	
3996	0	2047	2055	2050	2048	
3997	0	2060	2053	2055	2022	
3998	0	2055	2056	2063	2027	
3999	0	2050	2049	2050	2039	
4000	0	2044	2032	2052	2063	
4001	0	2044	2034	2050	2066	
4002	0	2056	2040	2046	2064	
4003	0	2055	2046	2060	2045	
4004	0	2053	2045	2056	2040	
4005	0	2049	2037	2045	2058	
4006	0	2052	2042	2057	2059	
4007	0	2053	2056	2058	2036	
4008	0	2063	2056	2063	2031	
4009	0	2062	2058	2060	2042	
4010	0	2048	2038	2057	2041	
4011	0	2032	2036	2034	2053	
4012	0	2028	2027	2041	2069	
4013	0	2030	2017	2037	2045	
4014	0	2044	2051	2043	2034	
4015	0	2059	2061	2035	2045	
4016	0	2056	2055	2051	2041	
4017	0	2056	2068	2054	2039	
4018	0	2064	2070	2061	2007	
4019	0	2051	2050	2044	2066	
4020	0	2053	2053	2051	2078	
4021	0	2058	2060	2048	2052	
4022	0	2048	2053	2054	2072	
4023	0	2049	2072	2040	2052	
4024	0	2062	2069	2049	2043	
4025	0	2046	2034	2043	2046	
4026	0	2042	2022	2052	2018	
4027	0	2042	2027	2038	2012	
4028	0	2027	2009	2038	2096	
4029	0	2035	2037	2042	2041	
4030	0	2036	2047	2028	1992	
4031	0	2022	2028	2036	2024	
4032	0	2037	2037	2039	2022	
4033	0	2070	2075	2065	2051	
4034	0	2093	2121	2058	2090	
4035	0	2080	2098	2068	2078	
4036	0	2072	2093	2065	2049	
4037	0	2059	2094	2052	2050	
4038	0	2052	2067	2059	2054	
4039	0	2046	2052	2056	2075	
4040	0	2060	2058	2068	2074	
4041	0	2045	2034	2052	2075	
4042	0	2049	2047	2050	2060	
4043	0	2052	2051	2047	2028	
4044	0	2070	2047	2050	2022	
4045	0	2070	2065	2043	2008	
4046	0	2057	2051	2041	2028	
4047	0	2050	2042	2035	2039	
4048	0	2046	2047	2040	2042	
4049	0	2045	2050	2039	2068	
4050	0	2040	2044	2037	2054	
4051	0	2039	2045	2032	2066	
4052	0	2036	2043	2032	2041	
4053	0	2034	2053	2027	2058	
4054	0	2037	2048	2049	2051	
4055	0	2046	2048	2055	2051	
4056	0	2044	2041	2060	2045	
4057	0	2047	2035	2046	2036	
4058	0	2045	2037	2056	2059	
4059	0	2041	2038	2043	2050	
4060	0	2042	2045	2042	2053	
4061	0	2044	2050	2038	2056	
4062	0	2048	2046	2056	2041	
4063	0	2054	2055	2062	2040	
4064	0	2064	2063	2060	2044	
4065	0	2060	2059	2063	2029	
4066	0	2052	2046	2053	2053	
4067	0	2041	2044	2047	2054	
4068	0	2041	2041	2036	2049	
4069	0	2045	2041	2052	2053	
4070	0	2052	2053	2050	2037	
4071	0	2049	2044	2055	2051	
4072	0	2043	2039	2039	2047	
4073	0	2038	2046	2042	2041	
4074	0	2034	2036	2036	2057	
4075	0	2044	2039	2044	2040	
4076	0	2048	2056	2035	2031	
4077	0	2048	2050	2041	2063	
4078	0	2045	2049	2043	2041	
4079	0	2054	2050	2045	2046	
4080	0	2052	2045	2031	2039	
4081	0	2051	2046	2045	2040	
4082	0	2062	2058	2058	2054	
4083	0	2062	2054	2056	2049	
4084	0	2065	2064	2062	2060	
4085	0	2061	2061	2051	2067	
4086	0	2047	2047	2052	2057	
4087	0	2044	2038	2052	2063	
4088	0	2054	2057	2054	2061	
4089	0	2054	2055	2055	2044	
4090	0	2039	2043	2045	2046	
4091	0	2028	2030	2034	2054	
4092	0	2031	2034	2027	2036	
4093	0	2034	2047	2043	2039	
4094	0	2046	2062	2048	2025	
4095	0	2062	2076	2050	1972	
4096	0	2056	2075	2047	2023	
4097	0	2060	2074	2048	2058	
4098	0	2056	2060	2040	2050	
4099	0	2055	2066	2043	2075	
4100	0	2055	2067	2048	2059	
4101	0	2054	2061	2055	2049	
4102	0	2050	2031	2048	2060	
4103	0	2043	1999	2052	2057	
4104	0	2044	2030	2042	2058	
4105	0	2044	2051	2043	2053	
4106	0	2040	2038	2035	2045	
4107	0	2044	2044	2051	2050	
4108	0	2050	2055	2045	2040	
4109	0	2056	2059	2052	2042	
4110	0	2057	2050	2048	2058	
4111	0	2043	2039	2055	2048	
4112	0	2048	2052	2057	2043	
4113	0	2048	2048	2056	2051	
4114	0	2044	2047	2054	2037	
4115	0	2045	2050	2055	2038	
4116	0	2045	2055	2046	2045	
4117	0	2053	2058	2062	2033	
4118	0	2054	2047	2061	2041	
4119	0	2040	2024	2056	2055	
4120	0	2034	2025	2028	2044	
4121	0	2041	2044	2038	2055	
4122	0	2061	2067	2045	2049	
4123	0	2075	2087	2051	2024	
4124	0	2074	2080	2063	2054	
4125	0	2070	2074	2051	2059	
4126	0	2064	2072	2059	2063	
4127	0	2051	2046	2053	2069	
4128	0	2048	2045	2044	2049	
4129	0	2038	2046	2032	2050	
4130	0	2044	2052	2037	2026	
4131	0	2055	2070	2051	2036	
4132	0	2049	2071	2042	2047	
4133	0	2027	2003	2034	2064	
4134	0	2011	1992	2013	2073	
4135	0	2030	2033	2028	2050	
4136	0	2038	2044	2037	2055	
4137	0	2043	2050	2051	2042	
4138	0	2061	2075	2052	2020	
4139	0	2054	2061	2055	2040	
4140	0	2051	2046	2053	2042	
4141	0	2061	2055	2069	2034	
4142	0	2071	2049	2061	2047	
4143	0	2070	2061	2070	2043	
4144	0	2062	2064	2058	2057	
4145	0	2051	2043	2039	2050	
4146	0	2042	2037	2042	2045	
4147	0	2040	2033	2044	2058	
4148	0	2042	2039	2051	2045	
4149	0	2042	2041	2042	2031	
4150	0	2048	2057	2057	2033	
4151	0	2056	2065	2050	2035	
4152	0	2051	2049	2048	2055	
