# OpenSignals Text File Format
# {"00:07:80:3B:46:6F": {"sensor": ["EMG", "EMG", "EMG", "EMG"], "device name": "00:07:80:3B:46:6F", "column": ["nSeq", "DI", "Direito Multi", "Esquerdo Multi", "Direito ES", "Esquerdo ES"], "sync interval": 2, "time": "12:45:40.343", "comments": "", "device connection": "BTH00:07:80:3B:46:6F", "channels": [1, 2, 3, 4], "date": "2016-9-26", "mode": 0, "digital IO": [0, 1], "firmware version": 514, "device": "bioplux", "position": 0, "sampling rate": 1000, "label": ["Direito Multi", "Esquerdo Multi", "Direito ES", "Esquerdo ES"], "resolution": [12, 12, 12, 12], "special": [{}, {}, {}, {}]}}
# EndOfHeader
0	0	2102	2067	2119	2023	
1	0	1991	2103	2111	2041	
2	0	1890	2092	2075	2022	
3	0	1964	2049	2068	2063	
4	0	2048	2035	2056	2100	
5	0	2078	2042	2062	2108	
6	0	2034	2083	2055	2055	
7	0	2041	2078	2076	1975	
8	0	2071	2054	2033	1976	
9	0	2014	2015	1984	2017	
10	0	2002	2007	2006	2038	
11	0	1971	1992	1992	2053	
12	0	2009	1947	2059	2054	
13	0	2054	2002	2054	2062	
14	0	2042	2033	2021	2089	
15	0	2064	2077	2029	2079	
16	0	2038	2045	2023	2084	
17	0	1984	2008	2021	2155	
18	0	1933	1989	2002	2142	
19	0	1991	1977	2064	2131	
20	0	2069	2025	2084	2091	
21	0	2137	2102	2060	2015	
22	0	2138	2120	2053	1960	
23	0	2170	2130	2060	1961	
24	0	2128	2127	2102	1998	
25	0	2080	2045	2112	2046	
26	0	2051	2015	2034	2041	
27	0	2055	2038	2020	2019	
28	0	2026	2047	2007	2031	
29	0	2024	2051	1999	2027	
30	0	1994	2011	2006	2045	
31	0	1983	1983	2075	2044	
32	0	2079	1982	2091	2035	
33	0	2044	1996	2045	2033	
34	0	2054	2048	1986	2072	
35	0	2072	2071	1962	2084	
36	0	2030	2054	2033	2057	
37	0	2032	2096	2079	2062	
38	0	2087	2122	2132	2071	
39	0	2088	2090	2073	2062	
40	0	2091	2121	2053	2056	
41	0	2171	2104	2143	2048	
42	0	2152	2071	2170	2061	
43	0	2024	2040	2107	2008	
44	0	1900	2062	2033	1925	
45	0	1912	2080	2016	1880	
46	0	1966	2022	2009	1947	
47	0	2027	1977	2068	2049	
48	0	2069	2006	2057	2076	
49	0	2084	2049	2056	2132	
50	0	2106	2050	1982	2135	
51	0	2111	2064	1967	2072	
52	0	2065	2086	1995	2068	
53	0	1986	2049	1955	2126	
54	0	1988	2018	2009	2099	
55	0	1996	1996	2036	2058	
56	0	2010	1982	2034	2037	
57	0	2078	1981	2057	2042	
58	0	2115	2042	2030	2047	
59	0	2122	2064	2041	2044	
60	0	2084	2058	2056	1973	
61	0	1955	2035	2019	1997	
62	0	1896	2053	2101	2040	
63	0	1966	2045	2179	2093	
64	0	2075	2047	2172	2108	
65	0	2113	2034	2121	2099	
66	0	2049	2069	2123	2047	
67	0	2018	2067	2031	1955	
68	0	2021	2116	1909	1955	
69	0	2020	2203	1902	2006	
70	0	2111	2262	1953	2056	
71	0	2213	2227	2076	2071	
72	0	2244	2071	2110	2047	
73	0	2219	2007	2102	2037	
74	0	2093	1964	2005	2076	
75	0	1986	1954	1939	2088	
76	0	1985	1989	1986	2089	
77	0	2008	2004	2050	2155	
78	0	2010	2029	2092	2073	
79	0	2023	2055	2114	1989	
80	0	2013	2025	2093	1985	
81	0	1982	2015	2072	1991	
82	0	1950	1988	2056	2049	
83	0	1979	1994	2064	2077	
84	0	2015	2022	2047	2110	
85	0	2003	2044	2037	2120	
86	0	2033	2020	2038	2081	
87	0	2064	2018	2034	2017	
88	0	2119	2037	2046	2026	
89	0	2101	2021	2043	2022	
90	0	2080	1998	2002	2016	
91	0	2072	2026	1962	1993	
92	0	2096	2059	2059	2002	
93	0	2041	2069	2157	2016	
94	0	2021	2076	2125	2049	
95	0	2001	2029	2091	2036	
96	0	2074	2075	2119	2033	
97	0	2118	2065	2099	2101	
98	0	2135	2061	2009	2136	
99	0	2156	2075	2021	2105	
100	0	2106	2115	1999	2074	
101	0	1959	2112	1963	2037	
102	0	1885	2075	2029	2012	
103	0	1952	1955	2106	2017	
104	0	1993	1969	2091	2020	
105	0	2080	2018	2037	2023	
106	0	2148	2123	2049	1987	
107	0	2057	2169	2008	2047	
108	0	1981	2143	2021	2084	
109	0	2056	2101	2059	2046	
110	0	2135	2099	2016	2075	
111	0	2139	2073	2033	2072	
112	0	2084	2052	2052	2036	
113	0	2050	2052	2098	2033	
114	0	2040	2027	2090	2034	
115	0	2027	1961	2030	2057	
116	0	2016	1950	2032	2055	
117	0	2014	1942	2053	2032	
118	0	2018	1918	2054	2036	
119	0	1939	1919	1952	1978	
120	0	1943	1986	1946	1931	
121	0	1899	2008	1979	1985	
122	0	2075	2072	2053	2109	
123	0	2233	2098	2176	2181	
124	0	2255	2177	2189	2139	
125	0	2177	2183	2161	2137	
126	0	2095	2206	2102	2192	
127	0	2052	2118	2048	2145	
128	0	2058	2018	2026	2076	
129	0	2022	2024	2033	2066	
130	0	2043	2105	2052	1993	
131	0	2033	2112	1998	2055	
132	0	2048	2067	1996	2095	
133	0	2058	2045	2001	2047	
134	0	2040	2039	2033	2002	
135	0	2032	2036	2032	1967	
136	0	2021	2059	2029	1914	
137	0	2037	2079	1991	1859	
138	0	1997	2051	1996	1898	
139	0	1985	2027	2022	1993	
140	0	1998	2030	2028	2037	
141	0	2022	1996	2042	2073	
142	0	2041	1985	2053	2086	
143	0	2047	1991	2048	2072	
144	0	2031	1978	2053	2062	
145	0	2055	2004	2051	2076	
146	0	2063	2034	2085	2104	
147	0	2068	2016	2123	2118	
148	0	2073	2029	2099	2084	
149	0	2065	2064	2068	2061	
150	0	1997	2031	2046	2096	
151	0	1997	2010	2013	2063	
152	0	2034	2026	2031	1989	
153	0	1971	2015	2014	1940	
154	0	2019	2019	2032	1936	
155	0	2114	2047	2108	2032	
156	0	2223	2106	2137	2084	
157	0	2199	2131	2107	2108	
158	0	2117	2150	2089	2153	
159	0	2048	2105	2048	2148	
160	0	2045	2125	2058	1991	
161	0	1988	2217	1999	1982	
162	0	1970	2181	2013	1970	
163	0	1988	2077	2012	2023	
164	0	1950	2076	1982	2081	
165	0	1975	1998	1980	2089	
166	0	2053	1948	1992	2095	
167	0	2042	1935	1999	2083	
168	0	2035	1991	2049	2019	
169	0	2074	2045	2060	2008	
170	0	2069	2059	2027	2028	
171	0	2097	2043	2063	2038	
172	0	2099	2051	2089	2048	
173	0	2079	2030	2057	2062	
174	0	2026	2006	2000	2065	
175	0	1997	1969	2058	2089	
176	0	2024	2008	2118	2082	
177	0	2064	2033	2117	2040	
178	0	2084	2042	2099	2053	
179	0	2127	2061	2078	2043	
180	0	2122	2087	2055	2028	
181	0	2106	2072	2051	2045	
182	0	2082	2058	2009	2046	
183	0	2076	2025	2017	2037	
184	0	2162	2048	2051	2050	
185	0	2156	2056	2067	2063	
186	0	2063	2043	2021	2055	
187	0	1959	2020	1974	2085	
188	0	1870	2009	1980	2089	
189	0	1818	2025	1976	2083	
190	0	1891	2036	2010	2067	
191	0	2009	2060	2057	2042	
192	0	2079	2065	2020	2024	
193	0	2063	2013	2086	1982	
194	0	2127	1993	2174	2004	
195	0	2116	2013	2075	1990	
196	0	1950	2002	2028	2025	
197	0	1845	1974	2064	1992	
198	0	1930	1994	2079	2046	
199	0	2128	2079	2051	2116	
200	0	2235	2097	2142	2137	
201	0	2214	2130	2161	2120	
202	0	2189	2187	2101	2078	
203	0	2148	2188	2051	1981	
204	0	2172	2229	2076	1909	
205	0	2167	2229	2080	1932	
206	0	2030	2151	2028	1996	
207	0	1959	2054	2000	2050	
208	0	1970	2014	1973	2068	
209	0	2009	2004	1993	2076	
210	0	2039	2004	2044	2078	
211	0	2058	2012	2050	2080	
212	0	2047	2013	2032	2074	
213	0	2015	2008	2017	2058	
214	0	1994	2000	2049	2064	
215	0	1981	1996	2067	2047	
216	0	1934	1998	2016	2046	
217	0	1979	1996	2016	2032	
218	0	2047	1989	1956	2004	
219	0	2066	1965	1965	2025	
220	0	2044	1985	1932	2051	
221	0	1981	2033	1966	2021	
222	0	2006	2104	2037	2007	
223	0	2066	2044	2131	2054	
224	0	2061	1970	2119	2035	
225	0	2012	1908	2108	2136	
226	0	2049	1941	2119	2142	
227	0	2175	2122	2098	2112	
228	0	2225	2173	2032	2117	
229	0	2191	2149	2050	2098	
230	0	2155	2177	2082	2040	
231	0	2090	2204	2096	2096	
232	0	2096	2130	2123	2116	
233	0	2097	2096	2120	2066	
234	0	2051	2067	2102	2024	
235	0	2018	2064	2062	1952	
236	0	1983	2023	2013	2017	
237	0	1983	2011	2020	2044	
238	0	2015	2021	2019	2013	
239	0	2002	1990	1959	2022	
240	0	1987	1985	1973	2014	
241	0	1993	1965	2006	2050	
242	0	2020	1991	2023	2060	
243	0	2050	2001	2058	2072	
244	0	2056	1993	2048	2063	
245	0	2041	2021	2034	2015	
246	0	2047	2065	2055	1995	
247	0	2013	2041	2054	2018	
248	0	2017	2091	2085	1996	
249	0	2009	2091	2067	2055	
250	0	2032	2052	2081	2053	
251	0	2068	2058	2085	2078	
252	0	2058	2084	2059	2094	
253	0	2035	2056	2032	2078	
254	0	2020	2025	1953	2061	
255	0	2030	2022	1932	2020	
256	0	2095	2078	1951	1982	
257	0	2134	2152	2030	1985	
258	0	2125	2149	2086	2064	
259	0	2099	2120	2063	2060	
260	0	2081	2097	2068	2002	
261	0	2050	2039	2102	2016	
262	0	1993	1982	2118	2081	
263	0	1974	1976	2156	2099	
264	0	1964	2043	2117	2012	
265	0	1923	2082	2033	1997	
266	0	2035	2077	2035	2020	
267	0	2062	2077	2029	2043	
268	0	2092	2050	2073	2067	
269	0	2091	1965	2064	2099	
270	0	2070	1930	2087	2029	
271	0	2078	1964	2079	1981	
272	0	2124	1960	2021	2033	
273	0	2192	2001	2013	2128	
274	0	2140	2025	2039	2101	
275	0	2046	2038	2027	2059	
276	0	2062	2125	1967	2082	
277	0	2064	2172	1954	2136	
278	0	2064	2106	2038	2092	
279	0	2127	2078	2081	2053	
280	0	2084	2049	2045	2035	
281	0	1992	2006	2009	2045	
282	0	1863	1976	1949	2052	
283	0	1901	2076	1928	2066	
284	0	2061	2142	2039	2022	
285	0	2020	2138	2151	1987	
286	0	1957	2108	2134	2042	
287	0	2017	2061	2109	2066	
288	0	2029	2033	2092	2037	
289	0	1990	2066	2080	1978	
290	0	1847	2054	2080	1981	
291	0	1889	1965	2081	2068	
292	0	2038	1937	2015	2097	
293	0	2089	1987	1990	2040	
294	0	2184	2071	2089	2036	
295	0	2222	2050	2077	2062	
296	0	2226	2090	1986	2082	
297	0	2236	2178	2033	2046	
298	0	2166	2208	2093	2009	
299	0	2101	2118	2074	2036	
300	0	2080	2079	2044	2019	
301	0	2025	2017	1985	2018	
302	0	1977	1961	2014	2029	
303	0	1981	1979	2050	2070	
304	0	1995	1984	2055	2083	
305	0	2016	1936	2036	2106	
306	0	2105	2026	2086	2073	
307	0	2160	2110	2142	2104	
308	0	2086	2128	2127	2113	
309	0	2040	2101	2101	2098	
310	0	2034	2090	2021	2068	
311	0	2069	2058	1993	2080	
312	0	2086	2051	2000	2090	
313	0	2084	2044	2025	2058	
314	0	2036	2034	2013	2046	
315	0	2010	2014	2061	2054	
316	0	1949	1996	2063	2045	
317	0	1927	2025	2038	2020	
318	0	2003	2039	2065	1984	
319	0	2039	2058	2040	1942	
320	0	2085	2080	2068	1925	
321	0	2062	2066	2035	1974	
322	0	2006	2050	1996	1995	
323	0	2015	2082	2002	2021	
324	0	2055	2065	2041	2054	
325	0	2067	2020	2083	2040	
326	0	2051	2028	2101	2036	
327	0	2090	1990	2092	2091	
328	0	2051	1982	2074	2109	
329	0	2021	2015	2086	2070	
330	0	2087	2108	2068	2068	
331	0	2076	2126	2049	2074	
332	0	2034	2102	2055	2073	
333	0	2026	2093	2007	2091	
334	0	1974	2036	1977	2090	
335	0	1955	1995	2003	2095	
336	0	2038	2023	2042	2038	
337	0	2065	2029	2042	2032	
338	0	2079	2038	2047	2001	
339	0	2099	2041	2074	2025	
340	0	2093	1994	2083	2077	
341	0	2082	1966	2076	2048	
342	0	2085	1975	2094	1977	
343	0	2119	1978	2109	1984	
344	0	2119	2015	2064	2011	
345	0	2070	2040	2029	2029	
346	0	1971	2060	1986	2038	
347	0	1968	2125	1996	2102	
348	0	1987	2174	1979	2084	
349	0	1945	2198	1930	2075	
350	0	1958	2158	1940	2016	
351	0	1992	2113	1966	1962	
352	0	2065	2055	2028	1978	
353	0	2141	2042	2027	2007	
354	0	2129	2104	2076	2014	
355	0	2093	2102	2103	2055	
356	0	2150	2108	2113	2076	
357	0	2153	2100	2120	2082	
358	0	2151	2046	2143	2084	
359	0	2126	2004	2174	2090	
360	0	2081	2003	2166	2084	
361	0	1970	1987	2097	2077	
362	0	1883	1955	2003	2106	
363	0	2022	1938	1920	2115	
364	0	2035	1925	1940	2101	
365	0	2116	1975	2099	2069	
366	0	2140	2022	2165	2038	
367	0	1981	2015	2068	2006	
368	0	1951	2015	2018	2000	
369	0	1939	2012	1976	1986	
370	0	1796	1993	1905	1960	
371	0	1788	1957	1892	2018	
372	0	1992	1949	1950	2165	
373	0	2134	2097	1964	2146	
374	0	2226	2201	2049	2159	
375	0	2201	2149	2082	2123	
376	0	2119	2058	2057	2031	
377	0	2081	2043	2123	1997	
378	0	2029	2097	2147	2035	
379	0	2065	2088	2246	2018	
380	0	2125	2029	2277	2033	
381	0	2139	2040	2137	2023	
382	0	2101	2059	2014	2055	
383	0	2135	2092	2022	1987	
384	0	2145	2169	2035	1945	
385	0	2063	2113	2005	1976	
386	0	2041	2055	1976	1999	
387	0	2090	2136	2036	2080	
388	0	2090	2120	2070	2092	
389	0	2006	2019	2033	2077	
390	0	2005	2045	2000	2082	
391	0	2017	2046	1980	2036	
392	0	2014	2028	1995	2038	
393	0	2006	1953	2066	2110	
394	0	1978	1943	2110	2117	
395	0	1982	1964	2104	2074	
396	0	1999	1974	2102	2082	
397	0	2001	1922	2071	2064	
398	0	2035	1921	2062	1973	
399	0	2118	1966	2065	2028	
400	0	2076	2060	2067	2024	
401	0	2011	2135	2023	2030	
402	0	1956	2175	2040	2002	
403	0	1936	2185	2074	2036	
404	0	1925	2146	2103	2039	
405	0	1966	2116	2100	1985	
406	0	2048	2061	2030	1967	
407	0	2143	2012	1966	2043	
408	0	2187	2011	1967	2157	
409	0	2197	1997	1949	2136	
410	0	2163	2010	1887	2067	
411	0	2164	2036	1869	2061	
412	0	2154	2105	1935	1997	
413	0	2129	2145	2006	2005	
414	0	2028	2097	2027	2028	
415	0	1972	2043	2042	2047	
416	0	1957	2041	2080	1975	
417	0	2018	2097	2147	1957	
418	0	2058	2107	2176	2071	
419	0	2037	2044	2148	2115	
420	0	2021	2000	2145	2100	
421	0	2025	1991	2139	2087	
422	0	2044	1974	2093	2064	
423	0	2046	1953	2071	2079	
424	0	2012	1975	2035	2063	
425	0	2034	2034	2065	2025	
426	0	2051	2092	2058	2001	
427	0	2054	2081	2071	2034	
428	0	2059	2082	2068	2022	
429	0	2048	2086	2061	1976	
430	0	2054	2056	2061	2005	
431	0	2044	2052	2050	2073	
432	0	2067	2011	2055	2121	
433	0	2063	1934	2051	2120	
434	0	2046	1971	2089	2137	
435	0	2056	2009	2051	2114	
436	0	2067	2058	1972	2060	
437	0	2047	2121	1964	2030	
438	0	1967	2176	1939	2019	
439	0	1948	2132	1931	2042	
440	0	1941	2122	1918	2045	
441	0	1918	2136	1949	2080	
442	0	1956	2152	2030	2026	
443	0	2036	2105	2092	1967	
444	0	2097	2049	2088	2001	
445	0	2132	2028	2118	2032	
446	0	2165	2012	2158	2066	
447	0	2170	2026	2171	2071	
448	0	2135	1975	2104	2056	
449	0	2083	1870	2094	2087	
450	0	2086	1865	2097	2071	
451	0	2043	1871	2045	2094	
452	0	2009	1945	1990	2058	
453	0	2084	2081	2010	2000	
454	0	2063	2093	2011	2003	
455	0	2048	2093	2016	1992	
456	0	2060	2105	2054	1922	
457	0	1803	1986	1992	1977	
458	0	1609	1994	1922	2048	
459	0	1925	2103	2017	2039	
460	0	2218	2121	2085	2067	
461	0	2214	1958	2151	2358	
462	0	2196	2032	2210	2224	
463	0	2178	2123	2175	2116	
464	0	2201	2186	2140	2076	
465	0	2184	2158	2027	2120	
466	0	2153	2167	1957	1961	
467	0	2073	2199	1947	1842	
468	0	2079	2218	2005	1805	
469	0	2073	2190	2039	1872	
470	0	2063	2140	2067	1909	
471	0	2036	2040	2132	2061	
472	0	2019	1993	2079	2077	
473	0	1949	1974	2065	2076	
474	0	1966	1932	2049	2066	
475	0	2010	1897	2038	2097	
476	0	2103	1930	2103	2090	
477	0	2158	2019	2132	2110	
478	0	2077	2066	2085	2102	
479	0	1937	2072	1974	2091	
480	0	1999	2039	1934	2126	
481	0	2047	2005	2005	2120	
482	0	2056	2007	2001	2147	
483	0	2035	2022	1985	2071	
484	0	2016	2019	2021	2033	
485	0	2011	1994	2019	2030	
486	0	2006	2003	1949	2039	
487	0	2000	2061	1943	1988	
488	0	2019	2100	2038	1999	
489	0	2071	2090	2094	2032	
490	0	2061	2094	2101	1996	
491	0	2030	2045	2072	2026	
492	0	2042	2048	2106	2046	
493	0	2083	2063	2118	2020	
494	0	2072	2058	2092	2034	
495	0	2050	2047	2048	2045	
496	0	2037	2046	2049	2031	
497	0	2020	2016	2020	2071	
498	0	2035	2020	2005	2110	
499	0	2025	2031	1990	2075	
500	0	2024	2018	1995	2027	
501	0	2015	2007	2008	1965	
502	0	2034	2022	2009	1977	
503	0	2034	1940	2006	1992	
504	0	2035	1907	2050	2007	
505	0	2088	1912	2074	2033	
506	0	2093	1932	2153	2071	
507	0	2046	2054	2127	2025	
508	0	2020	2160	2139	2130	
509	0	2030	2187	2182	2150	
510	0	2014	2115	2096	2155	
511	0	1964	2083	1951	2175	
512	0	1969	2262	1981	2007	
513	0	2065	2409	2035	1916	
514	0	2114	2378	2072	1959	
515	0	2091	2190	2039	2049	
516	0	2076	1993	2023	2095	
517	0	2186	1890	2094	2171	
518	0	2234	1835	2134	2142	
519	0	2173	1898	2044	2141	
520	0	2103	2016	1994	2076	
521	0	2080	2056	2041	2008	
522	0	2016	2031	2043	1950	
523	0	1931	2011	1987	2011	
524	0	1889	2042	1949	2067	
525	0	1893	2122	1985	2074	
526	0	1917	2056	1967	2021	
527	0	2021	1934	1965	2066	
528	0	2089	1939	2035	2112	
529	0	2136	1958	2143	2127	
530	0	2166	1908	2230	2051	
531	0	2206	1979	2194	2013	
532	0	2116	2031	2138	2065	
533	0	1998	2051	2056	2041	
534	0	2077	2183	2123	1935	
535	0	2051	2217	2064	1919	
536	0	1975	2137	2008	1933	
537	0	2034	2093	2045	2005	
538	0	2055	2164	1995	1985	
539	0	2095	2182	2040	1962	
540	0	2117	2153	1993	1980	
541	0	2106	2118	2034	2041	
542	0	2094	2077	2020	2081	
543	0	2087	2040	2058	2067	
544	0	2038	1992	2039	2063	
545	0	2021	1963	2022	2086	
546	0	2058	2002	2072	2122	
547	0	2002	1975	2060	2105	
548	0	2024	1994	2049	2098	
549	0	1988	1984	2018	2117	
550	0	1814	1975	1982	2078	
551	0	1758	1985	1992	2045	
552	0	1815	1980	1973	2046	
553	0	1959	2003	1989	1982	
554	0	2080	2076	2054	1973	
555	0	2219	2091	2125	2051	
556	0	2234	2050	2100	2046	
557	0	2252	2077	2067	2052	
558	0	2172	2002	2015	2103	
559	0	2126	2079	1982	2074	
560	0	2092	2006	2041	2098	
561	0	2094	2007	2103	2178	
562	0	2092	2045	2111	2119	
563	0	2090	2110	2104	2105	
564	0	2110	2169	2118	2100	
565	0	2103	2163	2085	1990	
566	0	2079	2121	2065	1931	
567	0	2048	2098	2048	1914	
568	0	2013	2061	2044	1979	
569	0	2006	2051	2059	2024	
570	0	2003	2012	2047	2027	
571	0	1978	1980	2007	2019	
572	0	1986	1959	1981	2065	
573	0	2037	1959	2000	2065	
574	0	2122	2003	2018	2032	
575	0	2130	1997	2010	2023	
576	0	2057	2027	1992	2070	
577	0	1938	2073	1931	2121	
578	0	1763	2080	1944	2103	
579	0	1735	1996	2045	2057	
580	0	1781	1883	2045	2010	
581	0	1917	1974	2043	1892	
582	0	2087	2060	2156	1889	
583	0	2213	2094	2169	1962	
584	0	2236	2196	2083	2015	
585	0	2275	2206	2042	2220	
586	0	2190	2152	2025	2334	
587	0	2029	2124	1981	2188	
588	0	1981	2165	2001	2057	
589	0	2039	2128	2049	2055	
590	0	2111	2030	2123	2019	
591	0	2103	1990	2113	2012	
592	0	2128	2038	2119	2027	
593	0	2139	2022	2131	2052	
594	0	2133	2011	2150	2072	
595	0	2123	2058	2134	2058	
596	0	2089	2102	2076	2027	
597	0	2058	2066	2037	2036	
598	0	2003	2001	1978	2029	
599	0	1969	1924	1970	2080	
600	0	1984	1911	1982	2065	
601	0	1971	1921	1977	2036	
602	0	1950	1912	2043	2006	
603	0	1922	1826	2082	2037	
604	0	1872	1914	1981	2003	
605	0	1832	1914	1965	2027	
606	0	1908	2040	2031	2103	
607	0	1874	2229	1996	2142	
608	0	1952	2306	2013	2006	
609	0	2222	2277	2022	2021	
610	0	2465	2220	2178	2005	
611	0	2491	2098	2214	1956	
612	0	2388	2094	2139	1940	
613	0	2240	2146	2064	1973	
614	0	2074	2097	2059	2061	
615	0	2049	2085	2054	2035	
616	0	2020	2129	2036	1993	
617	0	1989	2126	2007	2040	
618	0	1978	2081	1983	2045	
619	0	2009	2038	1991	2011	
620	0	1990	1992	1990	2070	
621	0	1973	1969	2050	2103	
622	0	2003	1994	2084	2018	
623	0	2039	2018	2105	1942	
624	0	2049	2058	2084	1977	
625	0	2022	2058	2047	2059	
626	0	2032	2026	2026	2110	
627	0	2024	2010	2018	2137	
628	0	2015	2043	1993	2047	
629	0	2026	2045	1997	2044	
630	0	1983	1955	1963	2162	
631	0	1917	1818	1975	2200	
632	0	1937	1888	2014	2110	
633	0	1966	1915	2038	2037	
634	0	2010	1963	2047	2118	
635	0	2060	1996	2042	2146	
636	0	2080	2016	2065	2044	
637	0	2041	2090	2064	2070	
638	0	2135	2135	2071	2082	
639	0	2270	2189	2084	2050	
640	0	2171	2186	2044	2009	
641	0	2057	2141	2061	1992	
642	0	1980	2164	2043	1983	
643	0	1893	2174	2063	2000	
644	0	1863	2107	2043	2094	
645	0	1897	2026	2028	2059	
646	0	1968	2051	2008	1999	
647	0	2047	2072	2005	2013	
648	0	2189	2097	2022	2046	
649	0	2280	2104	2070	2057	
650	0	2208	2027	2105	2060	
651	0	2153	1980	2163	2055	
652	0	2056	1979	2117	2048	
653	0	1966	1999	2027	2044	
654	0	1995	2007	1994	2022	
655	0	2127	2035	2068	1990	
656	0	2162	1946	2102	2053	
657	0	2090	1877	2045	2057	
658	0	1865	1858	1936	2058	
659	0	1810	1864	2000	2087	
660	0	1817	1949	2049	2090	
661	0	1940	1986	2178	2098	
662	0	2056	1990	2291	2093	
663	0	2264	2014	2395	2061	
664	0	2271	2008	2306	2036	
665	0	2286	2197	2201	2004	
666	0	2281	2361	2057	1963	
667	0	2210	2483	1885	1969	
668	0	2104	2441	1822	1954	
669	0	2079	2292	1877	2047	
670	0	2079	2199	1951	2044	
671	0	2024	2079	1968	2052	
672	0	1974	1992	1943	2055	
673	0	1938	1958	1950	2051	
674	0	1920	1959	1945	2064	
675	0	1978	1957	1935	2080	
676	0	1970	1943	1941	2087	
677	0	1954	1925	1982	2072	
678	0	1990	1962	1999	2050	
679	0	1967	1976	1995	1993	
680	0	1971	1962	2006	1977	
681	0	2042	1890	2078	2052	
682	0	2056	1800	2085	2079	
683	0	1977	1904	2025	2034	
684	0	1999	2064	2045	1996	
685	0	1998	2189	2103	2148	
686	0	2083	2247	2179	2136	
687	0	2177	2269	2175	2008	
688	0	2194	2231	2159	1972	
689	0	2090	2101	2056	1988	
690	0	2032	2010	1950	1988	
691	0	2073	1976	1989	1998	
692	0	2037	1933	2006	2009	
693	0	1992	1939	2021	2043	
694	0	1860	1931	2005	2097	
695	0	1899	1884	1994	2089	
696	0	2025	1863	2076	2059	
697	0	2089	1970	2174	2096	
698	0	2109	2059	2260	2102	
699	0	2130	2110	2269	2211	
700	0	2052	2185	2202	2264	
701	0	2071	2309	2066	2176	
702	0	2223	2362	1964	2083	
703	0	2317	2235	2109	1983	
704	0	2264	2098	2237	1939	
705	0	2214	2120	2173	1897	
706	0	2097	2143	2025	1915	
707	0	2031	2134	1945	1954	
708	0	1999	2052	1931	2007	
709	0	1965	1999	1936	2029	
710	0	1953	1987	1948	2075	
711	0	2004	1968	1959	2077	
712	0	2000	1934	1966	2077	
713	0	1980	1951	1939	2040	
714	0	1932	1958	1898	2035	
715	0	1876	1956	1899	2094	
716	0	1778	1892	1861	2149	
717	0	1794	1859	1923	2080	
718	0	1961	1930	2041	1994	
719	0	1944	1858	2080	2027	
720	0	1955	1882	2165	2019	
721	0	2035	1937	2257	2087	
722	0	2203	2053	2373	2076	
723	0	2311	2153	2341	2110	
724	0	2207	2228	2126	2216	
725	0	2243	2231	2076	2145	
726	0	2256	2218	2054	1984	
727	0	2285	2289	2038	1848	
728	0	2215	2282	1964	1880	
729	0	2140	2238	1966	1991	
730	0	2099	2219	1955	2049	
731	0	2062	2149	1962	2065	
732	0	2039	2072	2004	2068	
733	0	2012	2021	2030	2024	
734	0	1971	1992	1975	2005	
735	0	1896	1970	1884	2014	
736	0	1909	1957	1860	2014	
737	0	1919	1919	1867	2013	
738	0	1944	1952	1932	2028	
739	0	1974	1946	1943	2036	
740	0	1939	1851	1972	2066	
741	0	2024	1847	2052	2059	
742	0	1988	1838	2034	2145	
743	0	1738	1825	2054	2204	
744	0	1716	1865	2197	2102	
745	0	2021	2016	2436	1981	
746	0	2107	2172	2340	1977	
747	0	2232	2222	2309	2110	
748	0	2387	2358	2301	2158	
749	0	2378	2321	2221	2240	
750	0	2310	2336	2102	2103	
751	0	2226	2343	2097	1999	
752	0	2195	2246	2132	1931	
753	0	2162	2091	2062	2004	
754	0	2078	2016	2014	1995	
755	0	2031	1987	1990	1981	
756	0	2008	1951	1957	1993	
757	0	1983	1949	1921	2001	
758	0	1964	1941	1928	2040	
759	0	1966	1954	1974	2043	
760	0	1962	1957	1981	2045	
761	0	1949	1945	1957	2050	
762	0	1955	1942	1946	2035	
763	0	1947	1936	1928	2062	
764	0	1941	1930	1914	2064	
765	0	1967	1944	1945	2078	
766	0	1984	1955	1981	2122	
767	0	1922	1881	2024	2139	
768	0	1911	1889	2052	2136	
769	0	1880	1888	2048	2094	
770	0	1910	1889	2043	2023	
771	0	2074	2105	2093	1934	
772	0	2281	2302	2182	1868	
773	0	2376	2294	2214	1967	
774	0	2385	2316	2154	2176	
775	0	2267	2363	2032	2104	
776	0	2143	2332	1997	2079	
777	0	2129	2239	2081	1943	
778	0	2077	2094	2075	1972	
779	0	2005	1995	2051	2010	
780	0	1974	1964	2033	2046	
781	0	1951	1957	1947	2063	
782	0	1949	1969	1948	2032	
783	0	1966	1956	1915	2010	
784	0	1951	1939	1871	1953	
785	0	1844	1921	1855	1949	
786	0	1745	1869	1856	2026	
787	0	1588	1756	1907	2183	
788	0	1697	1647	2059	2305	
789	0	2029	1857	2219	2118	
790	0	2257	2111	2262	2091	
791	0	2265	2245	2244	2190	
792	0	2310	2284	2310	2125	
793	0	2444	2290	2423	2092	
794	0	2494	2339	2368	1952	
795	0	2479	2371	2258	1793	
796	0	2327	2367	2117	1827	
797	0	2216	2278	2029	1971	
798	0	2099	2186	1988	2155	
799	0	1984	2126	1967	2181	
800	0	1964	2042	1963	2112	
801	0	1947	1973	1954	2068	
802	0	1921	1929	1928	2053	
803	0	1911	1902	1946	2031	
804	0	1906	1881	1954	2021	
805	0	1910	1913	1942	2026	
806	0	1910	1919	1961	2040	
807	0	1921	1911	1956	2046	
808	0	1893	1917	1947	2064	
809	0	2012	1999	1978	2056	
810	0	2034	1992	1947	2067	
811	0	1999	1855	1891	2076	
812	0	1940	1850	1889	2024	
813	0	1783	1921	2018	2036	
814	0	1790	1973	2140	2050	
815	0	2033	2144	2276	2049	
816	0	2291	2262	2430	2129	
817	0	2389	2299	2339	2030	
818	0	2341	2244	2184	2031	
819	0	2256	2162	2132	1996	
820	0	2155	2116	2041	2077	
821	0	2120	2093	1987	2128	
822	0	2089	2044	1961	2099	
823	0	2030	2037	1993	2056	
824	0	2000	2010	1951	2098	
825	0	1965	2006	1943	2084	
826	0	1970	2002	1966	2054	
827	0	1993	2034	1972	1955	
828	0	2006	2019	1973	1914	
829	0	1970	1956	1992	1891	
830	0	1950	1936	1975	2010	
831	0	1959	1939	1999	2035	
832	0	1966	1953	1998	2031	
833	0	1999	1949	2031	2024	
834	0	2035	1965	2066	2049	
835	0	2113	2059	2137	2059	
836	0	2123	2126	2144	1992	
837	0	2082	2103	2133	2033	
838	0	2072	2046	2063	2154	
839	0	2069	2085	2070	2191	
840	0	2054	2148	2054	2138	
841	0	2061	2112	2079	2221	
842	0	2105	2105	2133	2109	
843	0	2090	2183	2031	1962	
844	0	2061	2195	1955	1919	
845	0	2056	2205	1949	1926	
846	0	2001	2144	1969	2030	
847	0	1992	2088	2036	2041	
848	0	1916	1999	2012	1990	
849	0	1819	1916	2000	1991	
850	0	1804	1881	2009	2010	
851	0	1881	1859	2013	2058	
852	0	1987	1956	2097	2088	
853	0	2107	1982	2175	2123	
854	0	2144	1956	2092	2140	
855	0	2142	1924	2046	2132	
856	0	2184	1952	2044	2071	
857	0	2169	2068	1988	2000	
858	0	2160	2047	2075	2042	
859	0	2339	2084	2218	2044	
860	0	2563	2136	2235	2058	
861	0	2459	2233	2209	2118	
862	0	2292	2300	2217	2152	
863	0	2018	2291	2117	2120	
864	0	1867	2268	2065	2012	
865	0	1955	2183	2053	1928	
866	0	2015	2142	2059	1888	
867	0	2025	2086	2063	1941	
868	0	2044	2034	2054	1974	
869	0	2019	1987	2010	2007	
870	0	2004	1988	1987	2084	
871	0	1954	1993	1977	2102	
872	0	1884	1980	1974	2093	
873	0	1810	1954	1929	2118	
874	0	1893	1962	1953	2087	
875	0	1968	1972	1976	2052	
876	0	1987	1954	1952	2054	
877	0	2014	1933	1964	2070	
878	0	2028	1960	1988	2080	
879	0	2045	1983	2011	2080	
880	0	2001	1967	2035	2024	
881	0	1926	1951	2019	1991	
882	0	1912	1980	1999	1980	
883	0	1964	1971	2034	1998	
884	0	2037	1938	2099	1936	
885	0	2021	1905	2128	2014	
886	0	1990	1957	2072	2133	
887	0	2076	2110	2055	2060	
888	0	2199	2227	2101	1938	
889	0	2186	2236	2071	2102	
890	0	2186	2181	2079	2215	
891	0	2251	2321	2054	2213	
892	0	2205	2277	2005	2092	
893	0	2127	2177	1998	2029	
894	0	2085	2176	2082	1972	
895	0	2093	2197	2110	1963	
896	0	2086	2135	2114	2017	
897	0	2078	2049	2144	2029	
898	0	2049	2005	2122	2060	
899	0	2029	1986	2091	2058	
900	0	1994	1959	2045	2064	
901	0	1980	1949	2005	2063	
902	0	1991	1959	2018	2059	
903	0	2001	1977	2017	2039	
904	0	2007	1982	2003	2038	
905	0	2013	1987	1980	2030	
906	0	2001	1975	1933	2031	
907	0	1967	1981	1885	1974	
908	0	1917	1966	1829	1970	
909	0	1870	1937	1813	1973	
910	0	1886	1930	1880	1969	
911	0	1825	1878	2015	2085	
912	0	1858	1820	2161	2163	
913	0	1909	1923	2207	2070	
914	0	1994	2001	2176	2191	
915	0	2035	2156	2218	2319	
916	0	2184	2260	2278	2295	
917	0	2379	2366	2363	2137	
918	0	2590	2398	2362	1986	
919	0	2627	2377	2243	1869	
920	0	2504	2272	2131	1874	
921	0	2299	2151	2046	1923	
922	0	2111	2050	1982	2004	
923	0	2009	1987	1980	2044	
924	0	1953	1984	1966	2019	
925	0	1919	1988	1946	2002	
926	0	1917	1972	1970	2037	
927	0	1904	1971	1961	2044	
928	0	1893	1953	1965	2064	
929	0	1922	1962	1986	2114	
930	0	1942	1952	1946	2020	
931	0	1938	1878	1954	1971	
932	0	1882	1785	1888	1941	
933	0	1827	1717	1920	1871	
934	0	1921	1665	1980	1868	
935	0	2024	1812	2058	2039	
936	0	2134	1963	2071	2302	
937	0	2118	2170	2023	2458	
938	0	1995	2284	2027	2337	
939	0	1966	2424	2044	2174	
940	0	2107	2520	2092	1912	
941	0	2146	2537	2134	1879	
942	0	2073	2412	2063	1927	
943	0	2035	2266	2019	1954	
944	0	2083	2112	2053	1999	
945	0	2112	2003	2155	2041	
946	0	2165	1988	2223	2091	
947	0	2175	1962	2166	2089	
948	0	2084	1956	2040	2058	
949	0	2072	1982	2002	2025	
950	0	2013	1949	2035	2022	
951	0	2024	1929	2107	2040	
952	0	2066	1961	2134	2034	
953	0	2070	1981	2091	2014	
954	0	2077	1993	2042	2034	
955	0	2116	2018	2024	2046	
956	0	2052	1965	2033	2060	
957	0	2065	1961	2090	2105	
958	0	2087	2006	2109	2107	
959	0	2069	2060	2079	2077	
960	0	2039	2050	2062	2075	
961	0	2004	2037	2018	2057	
962	0	1985	2006	1973	2032	
963	0	1949	1930	1934	1997	
964	0	1896	1956	1882	1853	
965	0	1891	1992	1905	1774	
966	0	1870	1911	1926	1873	
967	0	1864	1795	2001	1955	
968	0	1951	1784	2075	2134	
969	0	1980	1889	2117	2329	
970	0	1962	2040	2253	2401	
971	0	2156	2143	2286	2414	
972	0	2237	2364	2123	2294	
973	0	2229	2508	1936	2134	
974	0	2265	2567	1961	1968	
975	0	2354	2470	2163	1959	
976	0	2363	2233	2187	1928	
977	0	2260	2095	2122	1912	
978	0	2217	2072	2096	1899	
979	0	2152	2034	2054	1971	
980	0	2041	1985	2000	1997	
981	0	1919	1969	1913	2007	
982	0	1884	1960	1958	1997	
983	0	1917	1967	2001	1986	
984	0	1940	1962	2012	2010	
985	0	1952	1954	2026	2047	
986	0	1955	1958	2024	2062	
987	0	1963	1981	2034	2050	
988	0	1976	1989	1999	2029	
989	0	1974	1975	1990	2048	
990	0	1983	1994	1962	2024	
991	0	1994	1997	1969	2002	
992	0	1999	1986	1976	2053	
993	0	2032	1984	2012	2060	
994	0	2018	1965	2031	2049	
995	0	1934	1917	2066	2092	
996	0	1990	1982	2137	2122	
997	0	2080	2063	2166	2156	
998	0	2170	2028	2143	2169	
999	0	2185	1988	2156	2099	
1000	0	2142	2055	2138	1991	
1001	0	2080	2113	2024	1968	
1002	0	2050	2166	2034	1999	
1003	0	2078	2209	2062	2009	
1004	0	2100	2204	2087	2035	
1005	0	2082	2151	2060	2042	
1006	0	2069	2113	2027	2059	
1007	0	2049	2065	1971	2079	
1008	0	2003	2008	1937	2093	
1009	0	1979	1994	1922	2048	
1010	0	1940	1944	1889	2038	
1011	0	1910	1918	1923	2006	
1012	0	1905	1922	1976	1965	
1013	0	1982	2020	2098	1922	
1014	0	2081	2155	2213	1832	
1015	0	2183	2215	2231	1969	
1016	0	2091	2049	2133	2071	
1017	0	1960	1815	2098	2219	
1018	0	2019	1779	2225	2205	
1019	0	2105	1842	2195	2214	
1020	0	2134	1973	2191	2409	
1021	0	2158	2237	2144	2372	
1022	0	2107	2428	1997	2031	
1023	0	2238	2518	2008	1771	
1024	0	2264	2422	2016	1793	
1025	0	2159	2194	1928	1930	
1026	0	2048	2018	1898	2001	
1027	0	2013	1966	1943	2016	
1028	0	2052	1963	2016	2045	
1029	0	2036	1954	2055	2037	
1030	0	1981	1963	1994	2062	
1031	0	1948	1980	1998	2065	
1032	0	1972	2000	2013	2079	
1033	0	2006	2008	2053	2078	
1034	0	2000	2001	2066	2084	
1035	0	2025	1980	2081	2081	
1036	0	2043	1982	2038	2015	
1037	0	2003	1936	2024	1985	
1038	0	1998	1906	2049	2025	
1039	0	1983	1813	2057	2095	
1040	0	2003	1780	2082	2069	
1041	0	2034	1894	2054	1990	
1042	0	1922	1995	1955	1980	
1043	0	1756	1993	1894	2044	
1044	0	1686	2041	2001	2025	
1045	0	1754	2071	1995	2170	
1046	0	2051	2074	2035	2313	
1047	0	2322	2162	2035	2348	
1048	0	2431	2266	2120	2181	
1049	0	2471	2375	2176	1895	
1050	0	2434	2463	2193	1692	
1051	0	2339	2489	2132	1672	
1052	0	2217	2385	2126	1880	
1053	0	2184	2241	2262	2024	
1054	0	2181	2185	2301	2135	
1055	0	2165	2089	2269	2090	
1056	0	2105	1992	2157	1997	
1057	0	2000	1926	1988	2016	
1058	0	1940	1917	1926	2038	
1059	0	1921	1913	1927	2113	
1060	0	1915	1913	1923	2111	
1061	0	1915	1916	1911	2090	
1062	0	1895	1905	1902	2104	
1063	0	1908	1931	1921	2087	
1064	0	1922	1958	1931	2066	
1065	0	1928	1963	1936	2085	
1066	0	1942	1986	1969	2072	
1067	0	1981	2042	2002	2051	
1068	0	1983	2026	2015	2007	
1069	0	1932	1910	1992	1957	
1070	0	1906	1862	1961	1991	
1071	0	1884	1833	2019	2030	
1072	0	1875	1828	2075	2030	
1073	0	2043	1919	2120	2018	
1074	0	2208	2143	2125	1987	
1075	0	2210	2246	2080	2135	
1076	0	2225	2265	2040	2201	
1077	0	2189	2207	2059	2198	
1078	0	2212	2108	2238	2131	
1079	0	2230	2119	2257	2101	
1080	0	2184	2165	2157	2111	
1081	0	2126	2156	2118	2061	
1082	0	2098	2092	2134	2032	
1083	0	2107	2082	2142	2010	
1084	0	2066	2068	2079	2007	
1085	0	2039	2047	2025	2005	
1086	0	2021	2027	2016	2007	
1087	0	1999	2020	2005	2001	
1088	0	1965	2016	1940	2021	
1089	0	1908	2000	1880	2035	
1090	0	1890	1985	1849	1998	
1091	0	1929	1961	1887	1948	
1092	0	1933	1896	1902	1979	
1093	0	1970	1865	1987	1987	
1094	0	1950	1831	1979	1998	
1095	0	1772	1884	1938	2015	
1096	0	1868	2027	2046	1993	
1097	0	1874	2087	2058	2190	
1098	0	1948	2121	2250	2181	
1099	0	2186	2257	2435	2142	
1100	0	2512	2234	2492	2253	
1101	0	2422	2145	2359	2196	
1102	0	2358	2165	2177	2032	
1103	0	2310	2239	2006	1992	
1104	0	2184	2291	1848	2060	
1105	0	2153	2196	1813	2098	
1106	0	2174	2105	1967	2031	
1107	0	2124	2072	2057	2026	
1108	0	2059	2060	2043	2015	
1109	0	1995	2032	2010	2007	
1110	0	1962	2018	2000	1974	
1111	0	1944	2015	1996	1911	
1112	0	1934	2015	1991	1952	
1113	0	1945	1989	1993	2025	
1114	0	1980	1956	2009	2092	
1115	0	1958	1920	1997	2122	
1116	0	1964	1942	2014	2092	
1117	0	1962	1952	2006	2095	
1118	0	1967	1983	2025	2020	
1119	0	1986	2008	2030	1961	
1120	0	1982	1995	1977	1878	
1121	0	1986	2023	1990	1818	
1122	0	1993	2000	1980	1927	
1123	0	1950	1913	2007	2166	
1124	0	1953	1793	2067	2301	
1125	0	1963	1969	2103	2226	
1126	0	1921	2149	2160	2221	
1127	0	1990	2216	2142	2227	
1128	0	2118	2245	2087	2009	
1129	0	2236	2229	2189	1834	
1130	0	2304	2202	2230	1889	
1131	0	2312	2157	2121	2041	
1132	0	2294	2158	2070	2058	
1133	0	2230	2107	2038	2053	
1134	0	2100	2055	2007	2024	
1135	0	2023	2019	1993	2033	
1136	0	2029	1988	1966	2049	
1137	0	2016	1963	1970	2034	
1138	0	1945	1958	1959	1991	
1139	0	1913	1965	1945	1973	
1140	0	1935	1977	1936	1965	
1141	0	1950	1943	1926	2017	
1142	0	1943	1806	1915	2154	
1143	0	1945	1830	1945	2161	
1144	0	1968	1951	1963	2196	
1145	0	1964	1984	2029	2229	
1146	0	2075	2086	2122	2112	
1147	0	2141	2202	2222	2103	
1148	0	2163	2339	2279	2093	
1149	0	2154	2402	2237	1897	
1150	0	2157	2317	2209	1888	
1151	0	2180	2205	2212	2045	
1152	0	2166	2105	2227	2073	
1153	0	2122	2041	2229	2066	
1154	0	2107	1980	2158	2058	
1155	0	2076	1952	2113	2060	
1156	0	2013	1991	2085	2011	
1157	0	1989	2055	2012	1965	
1158	0	1992	2060	1940	1978	
1159	0	1984	2030	1910	2012	
1160	0	2003	1982	1927	2006	
1161	0	2080	1976	1933	1986	
1162	0	2038	1930	1891	2004	
1163	0	1960	1888	1867	2034	
1164	0	1971	1897	1923	2081	
1165	0	1941	1982	1959	2097	
1166	0	1743	2046	1862	2019	
1167	0	1794	2084	1903	2006	
1168	0	1985	2067	2032	2109	
1169	0	2020	2007	2080	2131	
1170	0	1903	2014	2075	2169	
1171	0	1963	1998	2156	2219	
1172	0	2033	1961	2344	2212	
1173	0	2207	2035	2356	2118	
1174	0	2412	2215	2300	2072	
1175	0	2425	2319	2202	2076	
1176	0	2490	2361	2088	1953	
1177	0	2409	2270	2001	1920	
1178	0	2178	2123	1876	1933	
1179	0	2055	1994	1847	2008	
1180	0	1986	1996	1881	1969	
1181	0	1891	2050	1939	1899	
1182	0	1944	2053	2035	1877	
1183	0	1998	2038	2073	1977	
1184	0	1928	2008	2084	1939	
1185	0	1894	1976	2050	1918	
1186	0	1955	1884	1993	2070	
1187	0	2030	1892	2045	2184	
1188	0	2088	2047	2044	2233	
1189	0	1987	2043	1951	2298	
1190	0	2066	2133	1975	2210	
1191	0	2004	2130	2022	2156	
1192	0	1990	2002	2063	2144	
1193	0	1952	2012	2083	2080	
1194	0	1969	2094	2043	2028	
1195	0	2061	2120	2051	1911	
1196	0	2142	2100	2050	1970	
1197	0	2139	2076	2125	2009	
1198	0	2217	2062	2187	2061	
1199	0	2231	2068	2182	2156	
1200	0	2088	2043	2085	2065	
1201	0	1913	1979	2023	2037	
1202	0	1957	1956	2050	2031	
1203	0	1960	1954	2018	2046	
1204	0	1953	2005	2008	2033	
1205	0	2047	2046	2103	1976	
1206	0	2171	2072	2163	1919	
1207	0	2226	2041	2172	1934	
1208	0	2190	2049	2116	1846	
1209	0	2068	2109	1974	1900	
1210	0	1957	2116	1922	2058	
1211	0	1903	2110	1925	2094	
1212	0	1950	2100	1950	2100	
1213	0	2019	2101	1989	2060	
1214	0	2059	2089	2046	2046	
1215	0	2043	2049	2037	2085	
1216	0	2009	2006	1998	2110	
1217	0	1978	1999	1988	2111	
1218	0	1956	2008	1978	2095	
1219	0	1989	2014	1992	2086	
1220	0	2002	2023	1989	2065	
1221	0	1991	2035	1951	2055	
1222	0	2000	1977	1975	2047	
1223	0	1992	1871	1983	2036	
1224	0	1984	1816	2023	2051	
1225	0	2026	1904	2094	1989	
1226	0	2184	2056	2227	1960	
1227	0	2237	2114	2353	2037	
1228	0	2225	2109	2345	2106	
1229	0	2153	2130	2300	2175	
1230	0	2097	2189	2152	2165	
1231	0	2054	2223	2013	2103	
1232	0	2089	2194	1999	2070	
1233	0	2156	2153	2017	2070	
1234	0	2121	2092	1973	2034	
1235	0	2077	2058	1966	1990	
1236	0	2051	2028	2023	1975	
1237	0	2012	2022	1999	1995	
1238	0	2004	2025	1970	2029	
1239	0	1998	2030	1972	2060	
1240	0	1997	2033	1970	2061	
1241	0	1976	2011	1940	2045	
1242	0	1962	1984	1926	2059	
1243	0	1976	1953	1924	2076	
1244	0	1985	1953	1968	2080	
1245	0	1941	1876	1987	2060	
1246	0	1909	1862	2034	2001	
1247	0	1901	1913	2125	1970	
1248	0	1944	1996	2163	2011	
1249	0	2028	2008	2203	2149	
1250	0	2102	2024	2282	2230	
1251	0	2110	2042	2201	2153	
1252	0	2058	2189	2069	2029	
1253	0	2107	2410	2014	1908	
1254	0	2296	2469	2026	1788	
1255	0	2371	2360	2059	1917	
1256	0	2343	2222	2028	1988	
1257	0	2208	2094	1971	1985	
1258	0	2104	2012	2024	2033	
1259	0	2010	1965	2050	2105	
1260	0	1961	2015	2061	2138	
1261	0	1939	1992	2009	2108	
1262	0	1995	2008	1982	2012	
1263	0	1961	1964	1985	1980	
1264	0	1958	1941	2038	1996	
1265	0	1959	1920	2024	2032	
1266	0	2007	2021	2009	1958	
1267	0	2044	2038	2037	2026	
1268	0	2052	2046	2075	2169	
1269	0	2014	2014	2054	2214	
1270	0	1973	1956	1999	2168	
1271	0	2002	1962	2017	2178	
1272	0	2036	1911	2034	2146	
1273	0	2076	1861	2076	2080	
1274	0	2081	1915	2130	2087	
1275	0	2150	2181	2172	2081	
1276	0	2147	2276	2126	2087	
1277	0	1989	2237	2048	2078	
1278	0	1972	2184	2071	2046	
1279	0	2047	2155	2056	1966	
1280	0	2144	2160	2109	1934	
1281	0	2064	2081	2086	2002	
1282	0	1940	1996	2021	2009	
1283	0	1960	2015	2076	1931	
1284	0	2047	2023	2089	1905	
1285	0	2112	1978	1971	1993	
1286	0	2046	2016	1819	1997	
1287	0	2006	2116	1864	1901	
1288	0	2041	2086	2005	2017	
1289	0	2000	1901	2045	2143	
1290	0	2052	1864	2119	2166	
1291	0	2148	1946	2173	2197	
1292	0	2199	1991	2106	2172	
1293	0	2156	2021	2134	2081	
1294	0	2129	2129	2098	2066	
1295	0	2059	2194	1956	2122	
1296	0	2002	2190	1983	2096	
1297	0	2007	2145	1999	2038	
1298	0	2022	2110	2012	2006	
1299	0	2017	2026	2047	1972	
1300	0	2067	2004	2134	1950	
1301	0	2046	2004	2117	1974	
1302	0	1998	2051	2035	2024	
1303	0	1969	2033	1996	2063	
1304	0	1949	1996	1987	2082	
1305	0	1948	1930	2061	2106	
1306	0	1987	1906	2163	2077	
1307	0	2009	1938	2225	2005	
1308	0	1912	1825	2187	2000	
1309	0	1828	1861	2120	1900	
1310	0	1857	2027	2012	1857	
1311	0	2002	2092	1946	2133	
1312	0	2117	2144	1879	2362	
1313	0	2358	2280	2000	2293	
1314	0	2598	2383	2081	2094	
1315	0	2516	2334	2056	1993	
1316	0	2334	2247	1998	1992	
1317	0	2166	2234	2030	1926	
1318	0	2052	2124	2060	1987	
1319	0	1941	2010	2065	2048	
1320	0	1984	1985	2058	2136	
1321	0	2011	2059	2050	2044	
1322	0	2021	2080	2067	1946	
1323	0	2022	2041	2029	1930	
1324	0	2015	1998	1984	1995	
1325	0	1996	1993	1972	2021	
1326	0	1915	1989	1988	2010	
1327	0	1881	1980	2008	2025	
1328	0	1888	1965	2024	2045	
1329	0	1909	1955	2025	2032	
1330	0	1967	1974	2027	2027	
1331	0	1998	1978	2054	2042	
1332	0	2030	1965	2064	2053	
1333	0	2059	1988	2094	2087	
1334	0	2039	2024	2107	2113	
1335	0	2016	2016	2061	2126	
1336	0	2010	2018	2030	2151	
1337	0	2034	2078	2018	2135	
1338	0	2114	2130	1993	2058	
1339	0	2115	2074	2008	2100	
1340	0	2088	2021	2031	2096	
1341	0	2062	2042	2027	2034	
1342	0	1926	1972	1946	2043	
1343	0	1842	1951	1949	2059	
1344	0	1914	1981	2005	2079	
1345	0	1987	2006	2047	2077	
1346	0	2002	2082	2147	1985	
1347	0	2079	2147	2245	1896	
1348	0	2139	2089	2222	1938	
1349	0	2271	2161	2279	1900	
1350	0	2264	2204	2232	1877	
1351	0	2246	2222	2177	1893	
1352	0	2192	2129	2103	2154	
1353	0	2144	2059	2097	2229	
1354	0	2108	2007	2094	2150	
1355	0	2119	2061	2079	2092	
1356	0	2086	2091	2003	2057	
1357	0	2028	2037	1927	2074	
1358	0	2010	2002	1898	2072	
1359	0	1981	1986	1895	2027	
1360	0	1957	2002	1907	2044	
1361	0	1859	1976	1894	2031	
1362	0	1861	2004	1930	2025	
1363	0	1967	1972	1949	2062	
1364	0	2102	1882	2042	2096	
1365	0	2171	1856	2170	2111	
1366	0	2161	1934	2164	2140	
1367	0	2119	1969	2163	2164	
1368	0	2069	2008	2140	2103	
1369	0	2028	2162	2118	2160	
1370	0	2006	2295	1982	2127	
1371	0	1905	2280	1922	2018	
1372	0	1915	2241	1942	1926	
1373	0	2075	2227	2021	1917	
1374	0	2098	2141	2045	1932	
1375	0	2048	2079	2029	1966	
1376	0	2036	2056	2034	2009	
1377	0	1955	2005	2051	1989	
1378	0	1940	1927	2038	2059	
1379	0	1997	1801	2129	2110	
1380	0	2087	1824	2144	2053	
1381	0	2132	1868	2154	2069	
1382	0	2028	1795	2099	2108	
1383	0	1955	1814	2070	2136	
1384	0	1982	1996	2056	2121	
1385	0	2093	2224	2125	2002	
1386	0	2305	2275	2165	2021	
1387	0	2367	2268	2071	2102	
1388	0	2330	2292	2104	2076	
1389	0	2128	2255	1991	2023	
1390	0	2003	2217	1986	1911	
1391	0	1956	2190	1961	1954	
1392	0	2000	2180	1947	1965	
1393	0	2071	2142	1927	1916	
1394	0	2062	2073	1894	1982	
1395	0	2075	2058	1951	2004	
1396	0	2119	2021	1956	1996	
1397	0	2121	2007	1920	1961	
1398	0	2036	1934	1939	1987	
1399	0	1928	1822	1901	2067	
1400	0	1783	1751	1924	2108	
1401	0	1719	1866	1973	1969	
1402	0	1858	2042	2113	1928	
1403	0	1879	2061	2168	2092	
1404	0	1986	2016	2206	2170	
1405	0	2167	2009	2230	2221	
1406	0	2236	2056	2342	2185	
1407	0	2226	2120	2412	2138	
1408	0	2211	2164	2228	2243	
1409	0	2168	2147	2109	2382	
1410	0	2174	2120	2151	2175	
1411	0	2106	2103	2106	1950	
1412	0	2035	2096	2025	1989	
1413	0	2038	2091	1986	2014	
1414	0	2052	2074	1985	2002	
1415	0	2053	2053	1987	1975	
1416	0	2039	2029	1994	1986	
1417	0	2039	2012	1964	2034	
1418	0	2019	2000	1985	2021	
1419	0	2037	1995	2000	1992	
1420	0	2023	1985	1966	1992	
1421	0	1979	1975	1947	2015	
1422	0	1978	1959	1981	2032	
1423	0	1986	1967	1991	2024	
1424	0	1923	1950	1979	2027	
1425	0	1930	1983	1969	2046	
1426	0	1989	2035	2006	2011	
1427	0	2008	2009	2062	2066	
1428	0	2008	1992	2149	2189	
1429	0	1997	1991	2208	2154	
1430	0	1967	2003	2157	2128	
1431	0	1912	2019	2041	2118	
1432	0	2053	2104	2087	2054	
1433	0	2109	2120	2111	2018	
1434	0	2098	2168	2021	1959	
1435	0	2199	2142	1985	1916	
1436	0	2222	2044	1894	1941	
1437	0	2072	2036	1819	1978	
1438	0	2014	2113	1968	2015	
1439	0	2152	2183	2167	2024	
1440	0	2204	2199	2151	1974	
1441	0	2295	2194	2173	2007	
1442	0	2286	2198	2175	2021	
1443	0	2168	2139	2084	2023	
1444	0	1993	2010	1987	2069	
1445	0	1931	2001	2008	2101	
1446	0	1862	1999	2018	2067	
1447	0	1914	1925	2016	2016	
1448	0	1990	1910	1958	2081	
1449	0	2077	1900	1933	2161	
1450	0	2191	1952	2032	2118	
1451	0	2151	2015	2096	2017	
1452	0	1963	2027	2068	2018	
1453	0	1874	2003	2150	2212	
1454	0	1887	2071	2196	2139	
1455	0	1967	2168	2214	2068	
1456	0	2105	2102	2177	2042	
1457	0	2148	2093	2099	2045	
1458	0	2146	2172	2057	2050	
1459	0	2102	2145	2039	1997	
1460	0	2031	2073	1978	1952	
1461	0	1990	1984	1982	1959	
1462	0	2022	1904	1984	2006	
1463	0	2013	1872	1985	2020	
1464	0	2022	1914	1946	2026	
1465	0	2067	1962	1987	2095	
1466	0	2074	2083	1961	2095	
1467	0	1926	2066	1918	2243	
1468	0	1996	2071	2023	2359	
1469	0	2079	2038	2118	2154	
1470	0	2087	1992	2105	2028	
1471	0	2067	2046	2048	1999	
1472	0	2084	2127	2033	1839	
1473	0	2065	2193	2038	1693	
1474	0	2002	2170	2042	1722	
1475	0	2019	2112	2082	1784	
1476	0	2069	2063	2073	2033	
1477	0	2115	2034	2071	2153	
1478	0	2088	2109	2049	2195	
1479	0	2108	2197	2053	2217	
1480	0	2080	2154	2053	2134	
1481	0	2020	2067	2084	2120	
1482	0	1990	2001	2077	2142	
1483	0	1941	1938	1992	2132	
1484	0	1894	1928	1953	2080	
1485	0	1888	1941	1988	2000	
1486	0	1838	1903	2043	2037	
1487	0	1773	1907	2040	2074	
1488	0	1861	1990	2029	2027	
1489	0	1943	2050	2000	2068	
1490	0	2180	2030	2035	2137	
1491	0	2397	2021	2180	2173	
1492	0	2479	2079	2263	2142	
1493	0	2320	2157	2179	1979	
1494	0	2294	2191	2053	1868	
1495	0	2346	2189	2071	1872	
1496	0	2331	2115	2185	1978	
1497	0	2202	2104	2160	2054	
1498	0	2082	2089	2090	2035	
1499	0	2028	2069	2022	2060	
1500	0	2028	2054	1993	2095	
1501	0	2035	2061	1965	2065	
1502	0	1967	2038	1941	1996	
1503	0	1908	1980	1961	2006	
1504	0	1882	1959	1992	2013	
1505	0	1841	1988	1965	1976	
1506	0	1820	1983	1951	1959	
1507	0	1895	1978	1998	1976	
1508	0	1983	1995	2016	2057	
1509	0	2022	1998	2031	2168	
1510	0	1958	1969	2009	2230	
1511	0	1941	2040	2037	2227	
1512	0	2061	2148	2087	2141	
1513	0	2130	2184	2128	2120	
1514	0	2166	2235	2128	2005	
1515	0	2121	2194	2098	1988	
1516	0	2068	2103	2049	2036	
1517	0	2033	2036	2028	2020	
1518	0	2023	2016	2000	2023	
1519	0	2021	2012	2000	2027	
1520	0	2028	2005	2023	2028	
1521	0	2031	1999	2023	2031	
1522	0	2038	2004	2036	2026	
1523	0	2038	2016	2015	2012	
1524	0	2039	2003	1990	2020	
1525	0	2025	1992	1979	2039	
1526	0	1997	1967	1967	2049	
1527	0	2058	1994	1974	2011	
1528	0	2110	2003	1989	2007	
1529	0	2038	1998	1973	2050	
1530	0	1938	1966	2033	2123	
1531	0	1901	1963	2150	2095	
1532	0	1936	1958	2215	2132	
1533	0	2073	1967	2266	2170	
1534	0	2181	2067	2318	2196	
1535	0	2221	2166	2272	2150	
1536	0	2232	2202	2153	2143	
1537	0	2244	2208	2117	2038	
1538	0	2168	2204	2061	1906	
1539	0	2093	2194	2007	1831	
1540	0	2072	2167	1969	1851	
1541	0	2055	2135	1937	1883	
1542	0	2026	2097	1954	1935	
1543	0	2014	2045	2016	2024	
1544	0	1985	2001	2004	2082	
1545	0	1940	1949	1980	2106	
1546	0	1910	1880	1957	2094	
1547	0	1922	1868	1969	2002	
1548	0	1994	1846	1963	1944	
1549	0	2041	1835	1983	1968	
1550	0	1991	1826	1959	2006	
1551	0	1925	1892	1936	1982	
1552	0	2020	2128	1939	1919	
1553	0	2062	2339	2030	2004	
1554	0	1986	2423	2063	2236	
1555	0	2008	2369	2094	2300	
1556	0	2098	2239	2115	2243	
1557	0	2226	2073	2264	2312	
1558	0	2288	2063	2328	2227	
1559	0	2198	2031	2172	2142	
1560	0	2158	1960	2166	2091	
1561	0	2137	1959	2158	2067	
1562	0	2140	2014	2108	2047	
1563	0	2136	2108	2074	2005	
1564	0	2095	2118	2008	1983	
1565	0	2053	2046	1963	1985	
1566	0	2009	2010	1936	1961	
1567	0	1983	1998	1942	1956	
1568	0	1968	1984	1955	2004	
1569	0	1952	1964	1969	2064	
1570	0	1970	1924	1995	2104	
1571	0	2030	1918	2045	2060	
1572	0	2045	1977	2101	2021	
1573	0	1953	2035	2123	1987	
1574	0	1900	2069	2166	1928	
1575	0	1878	2049	2114	1939	
1576	0	1951	2051	2000	1959	
1577	0	2021	2115	1918	1960	
1578	0	2168	2180	2054	2073	
1579	0	2206	2175	2083	2156	
1580	0	2203	2150	2025	2046	
1581	0	2156	2146	1949	1915	
1582	0	2136	2125	1971	1927	
1583	0	2115	2099	2012	2020	
1584	0	2068	2061	2029	2046	
1585	0	2024	2009	2022	2076	
1586	0	1992	1962	2017	2108	
1587	0	1980	1973	2019	2091	
1588	0	1967	1996	2016	2052	
1589	0	1988	2035	2029	2035	
1590	0	2007	2038	2018	2075	
1591	0	2003	1991	2009	2087	
1592	0	1999	1964	2027	2061	
1593	0	2044	1968	2086	2062	
1594	0	2040	1993	2075	2063	
1595	0	2008	2001	2020	2050	
1596	0	2030	2048	2033	2098	
1597	0	2058	2051	2064	2141	
1598	0	2048	2014	2094	2102	
1599	0	1998	1999	2123	2112	
1600	0	2029	2020	2156	2144	
1601	0	2101	2001	2148	2134	
1602	0	2118	2019	2087	2062	
1603	0	2112	2106	2081	1986	
1604	0	2137	2180	2094	2002	
1605	0	2135	2238	2114	1988	
1606	0	2042	2192	2089	2038	
1607	0	2082	2169	2072	1964	
1608	0	2088	2132	2011	1946	
1609	0	2057	2081	1979	1989	
1610	0	2022	2048	1959	2047	
1611	0	1930	1990	1941	2046	
1612	0	1954	1960	1962	2057	
1613	0	1992	1956	1949	2081	
1614	0	1959	1909	1954	2130	
1615	0	1967	1928	1986	2142	
1616	0	1961	2016	2001	2029	
1617	0	1913	1979	2035	1988	
1618	0	1924	1942	2119	1975	
1619	0	2048	1929	2191	2082	
1620	0	2198	1890	2172	2227	
1621	0	2290	1933	2116	2236	
1622	0	2186	2020	2171	2202	
1623	0	2033	2240	2199	2074	
1624	0	2172	2461	2148	1804	
1625	0	2205	2495	2022	1697	
1626	0	2169	2327	2023	1823	
1627	0	2129	2206	2033	1972	
1628	0	2097	2115	1985	2032	
1629	0	2107	2054	2039	2022	
1630	0	2104	2045	2050	2013	
1631	0	2109	2030	2045	2045	
1632	0	2110	2012	1992	2090	
1633	0	2035	1983	1958	2130	
1634	0	1974	1947	1965	2135	
1635	0	1955	1948	1983	2107	
1636	0	1954	1959	1996	2098	
1637	0	1944	1961	1971	2056	
1638	0	1896	1946	1927	2013	
1639	0	1916	1973	1930	1977	
1640	0	1959	1958	1987	1920	
1641	0	2023	1896	2006	1942	
1642	0	1972	1734	2041	2032	
1643	0	1936	1713	2117	2063	
1644	0	1911	1805	2147	2075	
1645	0	1980	1964	2190	2171	
1646	0	2029	2113	2188	2230	
1647	0	2030	2233	2215	2211	
1648	0	2234	2350	2351	2222	
1649	0	2339	2354	2395	2220	
1650	0	2316	2359	2305	2075	
1651	0	2202	2371	2085	1953	
1652	0	2145	2272	1978	2008	
1653	0	2218	2192	1905	1936	
1654	0	2154	2141	1835	1969	
1655	0	2051	2039	1844	1984	
1656	0	1984	2003	1884	2036	
1657	0	1964	2008	1934	2102	
1658	0	1960	1997	1944	2023	
1659	0	1955	1965	1956	2012	
1660	0	1946	1929	1924	2041	
1661	0	1942	1898	1961	2041	
1662	0	1942	1919	1996	2041	
1663	0	1966	1912	2049	2027	
1664	0	1984	1917	2077	2035	
1665	0	1992	1941	2062	2006	
1666	0	1979	1974	2059	2015	
1667	0	2055	2011	2106	2126	
1668	0	2150	2018	2131	2117	
1669	0	2155	2058	2154	1999	
1670	0	2217	2137	2135	2035	
1671	0	2135	2189	2070	2070	
1672	0	1919	2158	2025	2070	
1673	0	1911	2121	2007	2063	
1674	0	2044	2128	2017	2018	
1675	0	2081	2093	1998	2066	
1676	0	2074	2040	2008	2040	
1677	0	2115	2055	2072	1982	
1678	0	2066	2015	2048	1991	
1679	0	1995	2008	1983	2066	
1680	0	1981	2009	1987	2084	
1681	0	1984	2001	2034	2061	
1682	0	1962	1922	2020	2115	
1683	0	1954	1915	2007	2064	
1684	0	1997	1968	2002	1946	
1685	0	2014	1993	2088	1888	
1686	0	2029	1994	2137	1893	
1687	0	2075	1948	2156	2088	
1688	0	2021	1954	2105	2236	
1689	0	2077	2113	2143	2202	
1690	0	2200	2183	2158	2202	
1691	0	2204	2191	2111	2183	
1692	0	2164	2237	2080	2038	
1693	0	2146	2323	2106	1854	
1694	0	2174	2280	2053	1878	
1695	0	2138	2182	1990	1968	
1696	0	2094	2099	2010	2022	
1697	0	2072	2064	2013	2052	
1698	0	1997	1992	1957	2067	
1699	0	1958	1966	1921	2072	
1700	0	1944	1963	1908	2079	
1701	0	1971	1985	1931	2063	
1702	0	1994	1989	1964	2068	
1703	0	1945	1953	2000	2083	
1704	0	1886	1912	1994	2135	
1705	0	1878	1835	1978	2179	
1706	0	1916	1840	1963	2123	
1707	0	1975	1882	2113	2017	
1708	0	2038	2005	2235	1911	
1709	0	2041	2064	2250	1834	
1710	0	2136	2034	2292	1922	
1711	0	2308	2027	2302	2088	
1712	0	2283	2039	2166	2127	
1713	0	2215	2212	2086	2047	
1714	0	2105	2354	1957	2081	
1715	0	2089	2376	1964	2011	
1716	0	2136	2334	1972	1966	
1717	0	2126	2201	1915	2035	
1718	0	2098	2121	1972	2087	
1719	0	2051	2060	2031	2071	
1720	0	2001	1997	2013	2077	
1721	0	2036	1956	2061	2068	
1722	0	2106	1917	2085	2080	
1723	0	2038	1860	2077	2070	
1724	0	1941	1857	2078	2050	
1725	0	1949	1931	2073	2013	
1726	0	2000	2009	2059	1907	
1727	0	2033	2094	2061	1916	
1728	0	2092	2087	2088	1953	
1729	0	2054	1945	2121	2026	
1730	0	1858	1800	2133	2095	
1731	0	1761	1871	2202	2245	
1732	0	1885	2009	2206	2284	
1733	0	2043	2124	2047	2301	
1734	0	2210	2156	1931	2261	
1735	0	2268	2302	1927	2052	
1736	0	2185	2302	1880	2045	
1737	0	2168	2156	1915	2170	
1738	0	2198	2121	1987	2120	
1739	0	2144	2148	1972	1976	
1740	0	2053	2165	1966	1869	
1741	0	2025	2139	2012	1800	
1742	0	2009	2122	2054	1829	
1743	0	2034	2098	2028	1910	
1744	0	2054	2055	2029	1983	
1745	0	2023	1979	2032	2014	
1746	0	1973	1960	2011	2057	
1747	0	1950	1937	1974	2099	
1748	0	1998	1924	1997	2060	
1749	0	2011	1914	2014	2063	
1750	0	2020	1907	2086	2050	
1751	0	2085	1946	2125	2059	
1752	0	2096	1973	2145	2089	
1753	0	2024	1987	2186	2064	
1754	0	1914	2015	2156	2062	
1755	0	1956	2097	2093	2039	
1756	0	1977	2108	2067	2101	
1757	0	2008	2102	2047	2081	
1758	0	2074	2085	1986	2003	
1759	0	2103	2063	1986	2057	
1760	0	2123	2087	1993	2045	
1761	0	2120	2072	2047	2036	
1762	0	2097	2031	2076	2036	
1763	0	2065	2039	2068	2087	
1764	0	2031	2027	2066	2128	
1765	0	2048	2024	2019	2156	
1766	0	2076	2020	2021	2116	
1767	0	2040	2034	2009	2019	
1768	0	2003	2086	2014	1957	
1769	0	1932	2059	1987	1959	
1770	0	1897	2000	1971	2031	
1771	0	1880	1935	2024	2048	
1772	0	1878	1868	2015	2131	
1773	0	1978	1887	2046	2111	
1774	0	2134	2000	2088	2038	
1775	0	2266	2155	2139	1996	
1776	0	2287	2284	2163	1929	
1777	0	2190	2232	2120	1868	
1778	0	2128	2147	2101	1940	
1779	0	2154	2152	2028	2064	
1780	0	2139	2136	2001	2153	
1781	0	2095	2099	2058	2138	
1782	0	1899	2045	2009	2044	
1783	0	1876	2063	2007	2005	
1784	0	1927	2000	2003	2065	
1785	0	1884	1970	1994	2048	
1786	0	2093	2022	2041	1994	
1787	0	2156	1982	2133	2084	
1788	0	2225	2002	2147	2006	
1789	0	2295	2019	2197	1967	
1790	0	2247	1996	2157	2063	
1791	0	2154	2054	2141	2116	
1792	0	2002	2091	2062	2201	
1793	0	1916	2108	2021	2264	
1794	0	2024	2070	2067	2218	
1795	0	2008	2074	1994	2136	
1796	0	1977	2142	1946	2125	
1797	0	2009	2060	2063	2095	
1798	0	2067	2011	2096	1941	
1799	0	2103	2061	2022	1881	
1800	0	2102	2011	2012	1896	
1801	0	2003	1930	2004	1970	
1802	0	2099	2017	2012	1925	
1803	0	2237	2191	1989	1814	
1804	0	2057	2255	1995	1831	
1805	0	1799	2204	2046	2073	
1806	0	1729	2030	2094	2170	
1807	0	1791	1901	2147	2092	
1808	0	1865	1896	2107	1983	
1809	0	1993	1917	2042	2029	
1810	0	2064	1879	2043	2296	
1811	0	2171	1848	2055	2401	
1812	0	2280	1958	2049	2279	
1813	0	2245	2113	2016	2141	
1814	0	2205	2242	1995	1997	
1815	0	2180	2295	1954	1919	
1816	0	2084	2273	1950	2026	
1817	0	2003	2160	1971	2040	
1818	0	2007	2062	2039	2009	
1819	0	2049	2021	2057	1909	
1820	0	2054	2049	2082	1816	
1821	0	2004	2038	2073	1876	
1822	0	1995	2054	2010	1942	
1823	0	1992	2046	2004	2007	
1824	0	1989	2010	1992	2056	
1825	0	2019	1972	2042	2089	
1826	0	2033	1902	2098	2144	
1827	0	1947	1933	2065	2034	
1828	0	1814	1950	1983	1920	
1829	0	1740	1922	2019	1971	
1830	0	1769	1977	2036	2033	
1831	0	1898	1949	2022	2097	
1832	0	2094	2036	2022	2159	
1833	0	2301	1979	2146	2227	
1834	0	2485	2025	2279	2232	
1835	0	2511	2220	2281	2106	
1836	0	2381	2310	2157	2086	
1837	0	2208	2309	2092	2136	
1838	0	2093	2269	2031	2069	
1839	0	2075	2231	2060	1986	
1840	0	2074	2217	2017	1956	
1841	0	2093	2108	1998	2008	
1842	0	2057	1973	1944	2062	
1843	0	1973	1880	1925	2061	
1844	0	1921	1858	1897	2100	
1845	0	1888	1895	1909	2107	
1846	0	1805	1936	1962	2034	
1847	0	1794	1988	2025	1996	
1848	0	1890	1969	2049	1972	
1849	0	1992	1966	2085	1950	
1850	0	2087	1927	2090	1974	
1851	0	2077	1903	2122	2033	
1852	0	2012	1892	2109	2141	
1853	0	2044	1941	2084	2251	
1854	0	2093	2029	2128	2178	
1855	0	2179	2109	2142	2101	
1856	0	2202	2067	2127	2055	
1857	0	2100	2041	1955	2070	
1858	0	2042	2120	1884	2047	
1859	0	2137	2252	1976	2003	
1860	0	2175	2333	2024	1987	
1861	0	2161	2302	2040	1929	
1862	0	1969	2197	2074	1923	
1863	0	1855	2164	2166	1977	
1864	0	1912	2137	2104	1980	
1865	0	1970	2087	2156	1913	
1866	0	2042	2066	2252	1957	
1867	0	2095	1995	2210	2001	
1868	0	2064	1889	2061	2136	
1869	0	2160	1976	2004	2148	
1870	0	2158	1971	1945	2076	
1871	0	2086	1999	1883	2012	
1872	0	2118	2083	1912	1909	
1873	0	2021	2072	1920	1950	
1874	0	1859	2054	1835	2018	
1875	0	1876	2053	1857	2056	
1876	0	1919	2066	1951	2062	
1877	0	1905	1933	1996	2045	
1878	0	1925	1908	2013	2043	
1879	0	1933	1893	2094	2090	
1880	0	2026	1896	2165	2196	
1881	0	2151	1885	2261	2216	
1882	0	2216	1977	2403	2160	
1883	0	2175	1991	2311	2072	
1884	0	2044	1960	2089	1994	
1885	0	2019	2026	1939	2058	
1886	0	2077	2190	1949	2084	
1887	0	2252	2367	2087	2035	
1888	0	2424	2437	2167	2147	
1889	0	2462	2356	2154	2240	
1890	0	2357	2270	2084	2074	
1891	0	2057	2091	1974	2025	
1892	0	1964	2026	2021	1895	
1893	0	1849	1957	2056	1932	
1894	0	1735	1933	2061	2054	
1895	0	1860	1941	2004	2097	
1896	0	1967	1921	1964	2103	
1897	0	1940	1904	1860	2120	
1898	0	1965	1987	1890	2067	
1899	0	1944	1953	1962	2083	
1900	0	1920	1879	1974	2274	
1901	0	2007	1979	1955	2168	
1902	0	2121	2140	2060	1925	
1903	0	2186	2204	2126	1742	
1904	0	2148	2157	2149	1857	
1905	0	2082	2134	2127	1857	
1906	0	2153	2106	2110	1853	
1907	0	2153	2020	2060	1947	
1908	0	2077	2027	2040	2036	
1909	0	2128	2125	2191	2031	
1910	0	2094	2045	2156	2107	
1911	0	1970	2073	2052	2102	
1912	0	1975	2096	1985	2169	
1913	0	2001	2036	2022	2247	
1914	0	2014	2031	2042	2143	
1915	0	2040	1991	2068	2179	
1916	0	2007	1956	2049	2119	
1917	0	2035	1970	2131	2022	
1918	0	2062	2054	2114	2064	
1919	0	2044	2115	2048	2046	
1920	0	2001	2093	1986	2012	
1921	0	1979	2028	1991	2067	
1922	0	1930	1996	1934	2063	
1923	0	1879	1976	1939	1977	
1924	0	1946	2032	1986	1880	
1925	0	1922	2002	1987	1940	
1926	0	1917	1956	1924	1937	
1927	0	1962	1965	1969	1940	
1928	0	2011	1963	2049	1951	
1929	0	2160	1960	2069	1949	
1930	0	2188	1992	2099	2072	
1931	0	2260	2109	2137	2098	
1932	0	2386	2205	2207	2343	
1933	0	2515	2266	2300	2331	
1934	0	2495	2221	2160	2266	
1935	0	2329	2126	2046	2136	
1936	0	2105	2090	1911	2026	
1937	0	1895	2031	1852	2006	
1938	0	1701	2034	1821	1967	
1939	0	1637	2024	1889	1984	
1940	0	1810	2034	2013	1946	
1941	0	1895	2110	2044	1928	
1942	0	1866	2045	2008	1991	
1943	0	2006	1981	2026	2028	
1944	0	2131	2034	2083	2016	
1945	0	2167	2025	2228	2002	
1946	0	2181	2019	2283	2013	
1947	0	2036	2017	2167	2110	
1948	0	1985	2076	2246	2069	
1949	0	2054	2075	2198	2042	
1950	0	2004	1960	2031	2134	
1951	0	1991	1982	1933	2172	
1952	0	2010	2057	2016	2077	
1953	0	2057	2131	2083	2079	
1954	0	2175	2133	2211	2068	
1955	0	2140	2023	2120	2037	
1956	0	2020	1937	2004	2036	
1957	0	2047	1963	1930	1976	
1958	0	2046	2030	1856	1986	
1959	0	1994	2066	1821	1995	
1960	0	2024	2061	1827	1959	
1961	0	2095	2044	1942	1927	
1962	0	2014	2129	2002	1942	
1963	0	1971	2205	2058	1936	
1964	0	2034	2185	2045	1968	
1965	0	1991	2049	2033	2017	
1966	0	2013	1951	2060	2251	
1967	0	2040	1960	2169	2257	
1968	0	2155	2011	2342	2200	
1969	0	2287	2082	2316	2203	
1970	0	2300	2105	2242	2126	
1971	0	2192	2059	2233	1979	
1972	0	2120	1987	2284	1955	
1973	0	2013	1956	2131	1948	
1974	0	1947	1940	1989	2024	
1975	0	1862	1996	1798	2184	
1976	0	1872	2134	1625	2264	
1977	0	2047	2170	1705	2142	
1978	0	2160	2097	1841	2025	
1979	0	2109	2055	1986	1944	
1980	0	2061	2045	2070	1935	
1981	0	2012	2011	2048	2009	
1982	0	1985	2014	2047	2013	
1983	0	2018	1954	2089	2014	
1984	0	1992	2010	2053	2009	
1985	0	1979	2136	2007	2012	
1986	0	2049	2191	2014	1970	
1987	0	2064	2186	2049	1958	
1988	0	2129	2085	2145	2033	
1989	0	2146	2018	2139	2125	
1990	0	2021	2014	1959	2080	
1991	0	1855	2043	1957	2026	
1992	0	1701	1953	2076	2076	
1993	0	1922	1948	2186	2080	
1994	0	2133	1980	2197	2132	
1995	0	2242	2051	2178	2099	
1996	0	2308	2150	2200	1988	
1997	0	2258	2165	2148	1919	
1998	0	2035	2155	2048	1897	
1999	0	1856	2053	1978	2006	
2000	0	1886	2017	1960	2035	
2001	0	2077	2025	2073	2016	
2002	0	2234	1994	2147	2076	
2003	0	2254	1979	2135	2085	
2004	0	2088	1973	2092	2115	
2005	0	2039	1966	2118	2184	
2006	0	2045	1892	2110	2240	
2007	0	2025	2017	2037	2231	
2008	0	2009	2170	1916	2221	
2009	0	2053	2190	1926	2121	
2010	0	2064	2149	1904	1999	
2011	0	2083	2112	1875	1989	
2012	0	2053	2057	1883	1952	
2013	0	1992	2042	1910	1899	
2014	0	1955	2033	1946	1933	
2015	0	1925	2011	2029	2024	
2016	0	1913	2005	2104	2064	
2017	0	1941	1963	2186	2062	
2018	0	1944	2030	2143	2010	
2019	0	1988	2070	2132	2032	
2020	0	2172	2069	2146	1977	
2021	0	2209	2084	2059	1918	
2022	0	2153	2055	1993	1924	
2023	0	2093	2075	1981	1919	
2024	0	2093	2065	1993	1988	
2025	0	2062	2030	1959	2015	
2026	0	1953	2018	1978	1944	
2027	0	1947	1979	2147	2052	
2028	0	2041	1983	2213	2270	
2029	0	2117	1954	2209	2257	
2030	0	2179	1974	2209	2142	
2031	0	2192	2090	2174	2075	
2032	0	2139	2112	2094	2136	
2033	0	2095	2055	2112	2179	
2034	0	2076	2089	2073	2078	
2035	0	2050	2156	1954	1996	
2036	0	2008	2202	1916	1981	
2037	0	2071	2199	1942	2014	
2038	0	2048	2174	1905	1933	
2039	0	2044	2098	1926	1990	
2040	0	1958	1950	1957	2065	
2041	0	1865	1927	1982	2046	
2042	0	1776	1864	1933	2118	
2043	0	1809	1801	1883	2203	
2044	0	1854	1924	1980	2194	
2045	0	1972	2116	2062	2183	
2046	0	2116	2218	2101	2080	
2047	0	2211	2180	2195	2089	
2048	0	2315	2162	2314	2019	
2049	0	2316	2190	2270	1985	
2050	0	2234	2127	2196	1986	
2051	0	2220	2054	2210	1972	
2052	0	2127	1978	2206	1954	
2053	0	1998	1958	2164	1991	
2054	0	1949	1954	2169	2024	
2055	0	1905	1986	2108	2002	
2056	0	1898	2019	2044	1944	
2057	0	1897	2056	1880	1990	
2058	0	1983	2085	1884	2070	
2059	0	2020	2071	1810	2029	
2060	0	2135	2127	1763	1975	
2061	0	2093	2057	1807	2073	
2062	0	2098	2035	1869	2203	
2063	0	2162	1988	1948	2237	
2064	0	2056	1962	2012	2050	
2065	0	2047	2011	2085	1963	
2066	0	2176	2089	2229	2018	
2067	0	2237	2100	2226	2132	
2068	0	2159	2043	2194	2122	
2069	0	1909	1967	2122	2024	
2070	0	1830	1935	2002	2026	
2071	0	1971	1951	1993	2066	
2072	0	2102	2045	2041	1986	
2073	0	2070	2151	1997	1900	
2074	0	2009	2236	1992	1915	
2075	0	2035	2232	2033	1957	
2076	0	2067	2167	2060	1951	
2077	0	2093	2119	2090	1984	
2078	0	2104	2073	2139	2038	
2079	0	2118	2038	2157	2007	
2080	0	2034	2000	2045	1991	
2081	0	2029	2038	1995	1918	
2082	0	1991	2059	1929	1957	
2083	0	1930	2016	1874	1921	
2084	0	1991	2019	1964	2013	
2085	0	1996	1964	2022	2284	
2086	0	2005	1953	2083	2452	
2087	0	2003	1894	2143	2445	
2088	0	1914	1812	2131	2408	
2089	0	1904	1850	2112	2291	
2090	0	1986	2029	2104	2196	
2091	0	2071	2237	2124	2021	
2092	0	2134	2267	2144	1920	
2093	0	2198	2197	2251	1879	
2094	0	2218	2221	2221	1904	
2095	0	2218	2195	2056	1898	
2096	0	2223	2147	1970	1852	
2097	0	2225	2116	2061	1951	
2098	0	2144	2063	2041	2057	
2099	0	2052	2005	1956	2145	
2100	0	2022	1961	1930	2102	
2101	0	2014	1966	1932	2063	
2102	0	2006	1969	1931	2068	
2103	0	1988	1948	1920	2100	
2104	0	1964	1967	1922	2063	
2105	0	1973	2004	1972	1979	
2106	0	1954	1967	1984	1966	
2107	0	1928	1896	1994	2009	
2108	0	1904	1872	2058	2007	
2109	0	1896	1845	2079	1972	
2110	0	1879	1837	2105	1926	
2111	0	1847	1800	2091	2033	
2112	0	1887	1785	2154	2204	
2113	0	2006	2068	2170	2110	
2114	0	2054	2310	2184	2077	
2115	0	2071	2346	2227	2146	
2116	0	2212	2245	2215	2184	
2117	0	2351	2222	2137	2198	
2118	0	2355	2356	2055	2034	
2119	0	2273	2467	1948	1882	
2120	0	2314	2398	1930	1865	
2121	0	2253	2265	1905	1971	
2122	0	2198	2180	2007	2033	
2123	0	2155	2130	2075	1997	
2124	0	2108	2085	2016	1961	
2125	0	2030	2007	1987	1961	
2126	0	1976	1949	2031	2005	
2127	0	1967	1915	2040	2082	
2128	0	1945	1900	2022	2091	
2129	0	1931	1908	2010	2060	
2130	0	1930	1910	2038	2060	
2131	0	1955	1928	2047	2068	
2132	0	1958	1936	2029	2085	
2133	0	1942	1941	1977	2056	
2134	0	1989	1962	1994	2025	
2135	0	2049	1959	1967	2098	
2136	0	2040	1911	1941	2144	
2137	0	2001	1800	1944	2211	
2138	0	1937	1745	1984	2133	
2139	0	1766	1776	1978	2072	
2140	0	1566	1896	2060	2034	
2141	0	1768	2055	2165	1955	
2142	0	1936	2020	2145	1957	
2143	0	2187	2098	2215	1891	
2144	0	2441	2260	2319	1921	
2145	0	2525	2386	2355	2172	
2146	0	2436	2502	2255	2247	
2147	0	2243	2422	2208	2164	
2148	0	1927	2134	2008	2034	
2149	0	1876	1980	1917	1932	
2150	0	2079	2008	1951	1934	
2151	0	2184	2093	1986	2023	
2152	0	2185	2163	1971	2089	
2153	0	2207	2196	1943	2033	
2154	0	2150	2130	2000	1990	
2155	0	2053	2069	1998	1997	
2156	0	1989	2013	1965	2036	
2157	0	1983	1972	1946	2034	
2158	0	1956	1953	1966	2068	
2159	0	1943	1969	2056	2063	
2160	0	1967	1923	2006	2080	
2161	0	1905	1905	2019	2088	
2162	0	1915	1872	2096	2051	
2163	0	1995	1907	2173	1919	
2164	0	1921	1865	2058	1915	
2165	0	1980	1916	2117	1935	
2166	0	2154	1972	2138	2069	
2167	0	2156	1967	2126	2137	
2168	0	2171	2006	2108	2267	
2169	0	2222	2042	2120	2225	
2170	0	2030	2044	1925	2377	
2171	0	2065	2086	2035	2422	
2172	0	2043	2224	1965	2287	
2173	0	1971	2239	1869	2089	
2174	0	2050	2225	1961	1866	
2175	0	2124	2308	2094	1739	
2176	0	2098	2299	2167	1794	
2177	0	2030	2302	2079	1757	
2178	0	2108	2298	2081	1791	
2179	0	2186	2251	2053	1883	
2180	0	2172	2117	2056	1975	
2181	0	2135	1972	2075	2088	
2182	0	2057	1941	2037	2083	
2183	0	1998	1920	2010	2063	
2184	0	1964	1923	1970	2130	
2185	0	1943	1917	1988	2237	
2186	0	1940	1983	2001	2171	
2187	0	1939	1984	2019	2125	
2188	0	1989	1984	2057	2097	
2189	0	2002	1969	2046	2071	
2190	0	2005	1971	2010	2032	
2191	0	2060	1975	1997	2051	
2192	0	2073	1992	2032	2034	
2193	0	2053	1976	2060	1963	
2194	0	2045	1986	2103	1939	
2195	0	1949	1997	2055	1942	
2196	0	1836	1986	2028	1981	
2197	0	1865	1923	2049	2041	
2198	0	2027	1956	2072	2023	
2199	0	2069	1954	2041	2036	
2200	0	2058	1943	2145	2095	
2201	0	2058	1990	2186	2095	
2202	0	2005	2033	1993	2097	
2203	0	2068	2082	1935	2193	
2204	0	2187	2149	2031	2119	
2205	0	2207	2232	2094	1928	
2206	0	2004	2096	2099	1917	
2207	0	1851	1926	1990	2071	
2208	0	2069	2067	2055	2181	
2209	0	2217	2190	2166	2297	
2210	0	2322	2234	2186	2353	
2211	0	2292	2183	2098	2229	
2212	0	2176	2095	2080	2252	
2213	0	2091	2007	2017	2231	
2214	0	2030	2049	2055	2041	
2215	0	2028	2168	2051	1853	
2216	0	2069	2190	1974	1727	
2217	0	2079	2163	1910	1700	
2218	0	2038	2131	2016	1775	
2219	0	2102	2073	2112	1889	
2220	0	2079	2104	2076	1865	
2221	0	1921	2086	1957	1941	
2222	0	1846	2003	1991	2001	
2223	0	1917	1943	1996	2022	
2224	0	1950	1981	1855	2047	
2225	0	1968	1990	1902	2124	
2226	0	2097	1984	2058	2214	
2227	0	2203	2024	2273	2178	
2228	0	2250	2039	2305	2110	
2229	0	2241	2068	2266	1996	
2230	0	2165	2042	2189	2012	
2231	0	2066	2018	2115	2051	
2232	0	1942	1984	2021	2034	
2233	0	1974	1960	2025	2037	
2234	0	1992	1918	2010	2068	
2235	0	1992	1970	1992	2085	
2236	0	1965	1956	1967	2142	
2237	0	2029	2020	1958	2153	
2238	0	1993	2114	1955	2034	
2239	0	1935	2078	1862	2104	
2240	0	1881	1991	1882	2192	
2241	0	1883	2049	1968	2078	
2242	0	1903	2131	2114	2032	
2243	0	1963	2136	2163	1948	
2244	0	2004	2138	2040	1839	
2245	0	2104	2176	1954	1982	
2246	0	2249	2216	2021	2080	
2247	0	2264	2200	2108	2134	
2248	0	2162	2157	2092	2111	
2249	0	1987	2052	2068	2075	
2250	0	1818	1768	2024	2148	
2251	0	1911	1802	2068	2100	
2252	0	2098	1953	2086	2043	
2253	0	2150	2017	2089	2030	
2254	0	2237	2080	2157	2087	
2255	0	2240	2102	2191	2118	
2256	0	2287	2070	2209	2038	
2257	0	2339	2152	2160	1957	
2258	0	2239	2164	2181	1979	
2259	0	2108	2099	2127	2063	
2260	0	2017	2009	1974	2131	
2261	0	1932	1955	1872	2128	
2262	0	1889	1905	1831	2054	
2263	0	1889	1907	1887	1974	
2264	0	1922	1974	1947	2021	
2265	0	1976	2035	1988	2021	
2266	0	1958	2071	1966	1950	
2267	0	1921	2019	1945	1954	
2268	0	1912	1924	1950	1974	
2269	0	1850	1845	2096	2024	
2270	0	1911	1901	2195	2074	
2271	0	2034	1976	2222	1991	
2272	0	2118	2079	2285	2014	
2273	0	2178	2266	2191	2207	
2274	0	2105	2370	1917	2229	
2275	0	1996	2336	1771	1916	
2276	0	2119	2270	1892	1838	
2277	0	2252	2241	2029	1931	
2278	0	2199	2192	2057	1985	
2279	0	2147	2141	2093	2079	
2280	0	2177	2122	2210	2172	
2281	0	2136	2061	2184	2218	
2282	0	2055	2020	2074	2191	
2283	0	2030	2011	2010	2053	
2284	0	2060	1988	1971	1968	
2285	0	2092	1986	2021	1974	
2286	0	2042	1974	2038	2008	
2287	0	1975	1944	2006	2035	
2288	0	1903	1951	1995	2011	
2289	0	1891	1937	2043	2055	
2290	0	1868	1886	1991	2071	
2291	0	1929	1928	1957	2088	
2292	0	1993	1977	2045	2114	
2293	0	2105	2105	2158	2068	
2294	0	2107	2167	2173	2038	
2295	0	2049	2104	2059	2051	
2296	0	2075	2052	2072	2043	
2297	0	2181	2097	2135	1959	
2298	0	2175	2082	2149	1975	
2299	0	2069	2041	2083	2069	
2300	0	1958	2001	2021	2063	
2301	0	1895	1913	2066	2104	
2302	0	1949	1884	2079	2219	
2303	0	2020	1920	1964	2242	
2304	0	2018	1945	2000	2144	
2305	0	2067	2041	2109	2049	
2306	0	2180	2081	2120	2035	
2307	0	2245	2111	2039	1949	
2308	0	2209	2201	2055	1862	
2309	0	2073	2176	2040	1961	
2310	0	2061	2134	2012	2065	
2311	0	2064	2160	1985	2079	
2312	0	2140	2155	2021	2065	
2313	0	2154	2150	2076	1978	
2314	0	2104	2134	2030	1921	
2315	0	2061	2073	2021	1989	
2316	0	1999	2002	2022	2025	
2317	0	1950	1984	2005	2054	
2318	0	1935	1989	1949	2093	
2319	0	1956	1987	1966	2081	
2320	0	1975	2030	2003	2003	
2321	0	1968	2025	2037	2012	
2322	0	1992	1978	2037	2126	
2323	0	2001	1987	2076	2053	
2324	0	2064	2073	2136	1980	
2325	0	2100	2084	2134	1993	
2326	0	2111	2006	2134	2031	
2327	0	2051	1887	2058	2099	
2328	0	1972	1922	2040	2112	
2329	0	2006	2031	2043	2097	
2330	0	2006	2097	2057	2081	
2331	0	1997	2038	2088	2156	
2332	0	2010	1910	2200	2240	
2333	0	1963	1844	2143	2157	
2334	0	1887	1795	1956	2049	
2335	0	1890	1891	1907	2265	
2336	0	2003	2035	1975	2224	
2337	0	2152	2225	2045	2094	
2338	0	2299	2462	2127	1947	
2339	0	2352	2512	2199	1781	
2340	0	2302	2415	2184	1697	
2341	0	2215	2298	1999	1727	
2342	0	2155	2193	2045	1750	
2343	0	2120	2153	2086	1808	
2344	0	2014	2113	1957	1999	
2345	0	2062	2102	1932	2118	
2346	0	2149	2153	1934	2212	
2347	0	2101	2098	1908	2283	
2348	0	2008	1977	1937	2147	
2349	0	1950	1959	1913	2071	
2350	0	1752	1881	1938	2123	
2351	0	1709	1854	2043	2152	
2352	0	1847	1879	2127	2131	
2353	0	1923	1839	2068	2106	
2354	0	2037	1824	2032	2027	
2355	0	2069	1914	2028	1944	
2356	0	2132	1910	2089	1946	
2357	0	2241	1909	2223	1965	
2358	0	2168	1948	2249	2044	
2359	0	2033	2041	2161	2041	
2360	0	2004	2088	2119	2006	
2361	0	2142	2129	2063	2038	
2362	0	2156	2181	2001	2136	
2363	0	1951	2088	1918	2172	
2364	0	1940	2066	1985	2140	
2365	0	2066	2117	2071	2103	
2366	0	2079	2129	2067	2020	
2367	0	2077	2080	2050	2140	
2368	0	2065	2121	1995	2166	
2369	0	2058	2212	1980	2126	
2370	0	2129	2177	2076	2077	
2371	0	2176	2128	2147	1982	
2372	0	2158	2080	2151	1959	
2373	0	2109	2034	2126	1972	
2374	0	2027	1989	2088	2021	
2375	0	1959	1952	2056	2039	
2376	0	1974	1948	1992	2026	
2377	0	2006	1961	1915	2043	
2378	0	1972	1981	1902	2104	
2379	0	1843	1910	1977	2098	
2380	0	1815	1910	1965	2012	
2381	0	1772	1942	1954	1982	
2382	0	1856	1900	2071	2031	
2383	0	2087	1977	2132	2047	
2384	0	2310	2150	2188	1991	
2385	0	2309	2150	2165	2071	
2386	0	2247	2158	2202	2013	
2387	0	2266	2172	2239	2005	
2388	0	2146	2133	2058	2110	
2389	0	2077	2083	2054	2091	
2390	0	2022	2106	2045	1997	
2391	0	1983	2147	2025	2028	
2392	0	1975	2112	1926	2054	
2393	0	1977	2111	1832	1950	
2394	0	2044	2110	1923	1889	
2395	0	2070	2042	1977	1930	
2396	0	2155	2022	2020	1976	
2397	0	2165	1964	2022	2123	
2398	0	2140	1971	2127	2140	
2399	0	2153	2005	2230	2070	
2400	0	2187	2065	2175	2022	
2401	0	2089	2011	2001	2114	
2402	0	2028	1993	1940	2092	
2403	0	1947	1983	1858	2083	
2404	0	1744	1924	1864	2117	
2405	0	1720	1959	1982	2151	
2406	0	1850	2003	2074	2195	
2407	0	2039	2048	2157	2134	
2408	0	2143	1955	2176	2094	
2409	0	2130	1898	2095	2050	
2410	0	2131	1959	2088	2056	
2411	0	2069	2207	2020	2049	
2412	0	1938	2313	1970	2152	
2413	0	2011	2479	1983	2044	
2414	0	2090	2417	2065	1955	
2415	0	2108	2299	2174	1845	
2416	0	2184	2209	2203	1792	
2417	0	2288	2048	2143	1897	
2418	0	2223	1980	2049	2007	
2419	0	2034	2003	1936	1977	
2420	0	1940	2030	1909	1990	
2421	0	1964	2008	1955	2083	
2422	0	1950	1974	1980	2067	
2423	0	1926	1934	1970	2073	
2424	0	1830	1881	1986	2139	
2425	0	1913	1917	2081	2160	
2426	0	2074	1947	2239	2105	
2427	0	2226	2003	2293	2050	
2428	0	2191	2025	2266	1989	
2429	0	2060	2017	2236	2052	
2430	0	2029	2001	2146	2160	
2431	0	2027	1955	2042	2158	
2432	0	2038	1958	1996	2151	
2433	0	2026	2042	1972	2069	
2434	0	1995	1963	1928	2117	
2435	0	2135	1970	1940	2106	
2436	0	2266	1963	2033	2071	
2437	0	2209	2040	2051	2011	
2438	0	2082	2136	1956	2041	
2439	0	2052	2197	2008	2033	
2440	0	2070	2182	2057	2006	
2441	0	2003	2065	2079	2008	
2442	0	1974	2037	2039	1967	
2443	0	1983	2043	2040	1977	
2444	0	1954	2071	2029	2059	
2445	0	1972	2128	2073	1944	
2446	0	1985	2119	2064	1854	
2447	0	1949	2058	2034	1918	
2448	0	1960	1957	2020	2058	
2449	0	1997	1972	1978	2142	
2450	0	2062	2042	1926	2066	
2451	0	2060	2082	1945	2094	
2452	0	2143	2050	1976	2134	
2453	0	2187	2072	2010	2131	
2454	0	2124	2112	1962	2112	
2455	0	2142	2056	2011	2091	
2456	0	2130	1973	2141	2005	
2457	0	1993	1904	2184	1966	
2458	0	1792	1903	2105	1973	
2459	0	1671	1876	1976	2063	
2460	0	1881	1890	2021	2065	
2461	0	2088	2122	2087	1891	
2462	0	2304	2311	2256	1892	
2463	0	2335	2319	2298	1959	
2464	0	2296	2180	2092	2123	
2465	0	2161	2150	1975	2310	
2466	0	1891	2072	1847	2465	
2467	0	1918	2036	1859	2334	
2468	0	2023	1996	1925	2205	
2469	0	2111	2077	2021	1992	
2470	0	2085	2076	2060	1933	
2471	0	1932	1964	1973	1967	
2472	0	1958	2016	1982	1909	
2473	0	2053	2047	2060	1966	
2474	0	2126	2122	2118	1978	
2475	0	2133	2170	2197	2042	
2476	0	2088	2145	2212	1934	
2477	0	2057	2082	2118	1934	
2478	0	2082	2049	2099	2057	
2479	0	1995	1975	2095	2086	
2480	0	1968	1983	2085	2021	
2481	0	2095	2008	2063	2007	
2482	0	2135	2009	2110	2018	
2483	0	2010	2032	2124	2008	
2484	0	2088	2101	2117	2000	
2485	0	2221	2196	2142	1970	
2486	0	2220	2188	2179	2031	
2487	0	2101	2117	2083	2101	
2488	0	2005	2072	1978	2064	
2489	0	1991	2055	1987	2053	
2490	0	1964	1990	1959	1993	
2491	0	1944	1907	1935	2004	
2492	0	1963	1881	1972	1986	
2493	0	1997	1920	1920	1955	
2494	0	1957	1858	1901	1970	
2495	0	1897	1797	1925	2119	
2496	0	1871	1792	1931	2304	
2497	0	1787	1823	1997	2395	
2498	0	1854	2040	2100	2262	
2499	0	2022	2103	2237	2291	
2500	0	2090	2182	2320	2147	
2501	0	2061	2179	2119	2029	
2502	0	2129	2096	1934	1967	
2503	0	2204	2092	1896	1923	
2504	0	2422	2240	2090	1878	
2505	0	2519	2360	2078	1882	
2506	0	2464	2347	2002	2024	
2507	0	2428	2264	2130	2000	
2508	0	2262	2123	2162	1970	
2509	0	2020	2080	2114	1975	
2510	0	1847	2047	2041	1982	
2511	0	1724	2016	1960	1921	
2512	0	1789	2044	1945	1992	
2513	0	1908	2029	1947	2148	
2514	0	1979	1974	2019	2172	
2515	0	1990	1924	2046	2133	
2516	0	1968	1932	2034	2046	
2517	0	1988	1954	2077	1905	
2518	0	1914	1888	2007	1886	
2519	0	1941	1897	2066	1842	
2520	0	1964	1898	2087	1881	
2521	0	1944	1901	2052	2043	
2522	0	1933	1824	2031	2270	
2523	0	2035	2008	1973	2374	
2524	0	2113	2127	1950	2436	
2525	0	2195	2209	2053	2260	
2526	0	2097	2269	2119	2092	
2527	0	2061	2217	2095	2045	
2528	0	2047	2172	2015	2092	
2529	0	2062	2149	2074	2055	
2530	0	2126	2157	2081	1991	
2531	0	2094	2064	1981	2087	
2532	0	2151	2080	1996	2113	
2533	0	2098	2020	1984	2061	
2534	0	2052	1943	1994	1928	
2535	0	2002	2000	2053	1748	
2536	0	1811	1945	2031	1743	
2537	0	1768	1854	2008	1859	
2538	0	1709	1782	2013	2022	
2539	0	1924	1894	2239	2099	
2540	0	2222	2003	2326	2208	
2541	0	2245	2060	2204	2385	
2542	0	2209	2155	2145	2184	
2543	0	2162	2191	2132	2072	
2544	0	2205	2300	2205	1954	
2545	0	2287	2344	2075	1907	
2546	0	2367	2238	2059	1920	
2547	0	2309	2116	2014	1911	
2548	0	2208	2060	1982	1945	
2549	0	2116	2104	1993	2047	
2550	0	2054	2159	2050	2144	
2551	0	2026	2166	2066	2088	
2552	0	2035	2105	2045	2038	
2553	0	2003	2106	1971	1989	
2554	0	1964	2112	1917	1992	
2555	0	1894	2063	1942	1985	
2556	0	1891	1904	2008	2064	
2557	0	1809	1756	2025	2096	
2558	0	1820	1688	2042	2108	
2559	0	1866	1715	2015	2107	
2560	0	1972	1822	1960	2112	
2561	0	2134	1910	2036	2086	
2562	0	2108	2010	1983	2135	
2563	0	2021	2078	1930	2335	
2564	0	2057	2161	2035	2333	
2565	0	2152	2285	2130	1914	
2566	0	2211	2339	2181	1754	
2567	0	2039	2226	2049	1863	
2568	0	1968	2087	2007	1871	
2569	0	2081	2039	2060	1993	
2570	0	2169	2039	2027	2093	
2571	0	2208	2007	2077	2107	
2572	0	2144	1925	2063	2076	
2573	0	2026	1948	2032	2107	
2574	0	1846	2049	1992	2093	
2575	0	1795	2102	2055	2038	
2576	0	1905	2145	2105	2108	
2577	0	2016	2094	2144	2155	
2578	0	2074	2043	2112	2055	
2579	0	2096	2033	1980	2127	
2580	0	2117	2033	1967	2017	
2581	0	2082	2028	1944	1887	
2582	0	1977	1901	1945	1889	
2583	0	1916	1823	2071	1998	
2584	0	1834	1757	2064	2086	
2585	0	1848	1873	2150	2061	
2586	0	1920	2025	2197	2055	
2587	0	2008	2106	2170	2134	
2588	0	2449	2303	2270	2083	
2589	0	2535	2396	2195	1955	
2590	0	2393	2420	2027	1871	
2591	0	2253	2304	2007	1916	
2592	0	2203	2177	1966	1934	
2593	0	2160	2092	1915	2046	
2594	0	1968	2000	1928	2043	
2595	0	1960	1914	1972	2152	
2596	0	1972	1873	1960	2235	
2597	0	1965	1919	1938	2292	
2598	0	1995	2051	2015	2226	
2599	0	2070	2100	2119	2206	
2600	0	2056	2081	2195	2108	
2601	0	2025	2068	2132	2045	
2602	0	1959	1961	2042	2034	
2603	0	1952	1854	1989	2004	
2604	0	1930	1790	1956	2045	
2605	0	1936	1801	2005	2064	
2606	0	1929	1895	2005	2022	
2607	0	1913	2110	2002	1886	
2608	0	1995	2270	2010	1847	
2609	0	2041	2294	2057	1846	
2610	0	2101	2231	2104	1893	
2611	0	2131	2254	2136	1994	
2612	0	2040	2227	2047	2075	
2613	0	2030	2130	1990	2016	
2614	0	2124	2073	1960	2040	
2615	0	2037	1921	1940	2075	
2616	0	1972	1888	1982	1942	
2617	0	2053	1942	2047	1856	
2618	0	2080	2027	1994	1906	
2619	0	2081	2022	2048	2054	
2620	0	2145	2044	2162	2222	
2621	0	2189	2091	2227	2328	
2622	0	2194	2052	2245	2424	
2623	0	2121	1999	2120	2324	
2624	0	2085	2026	2081	2104	
2625	0	1931	2024	2031	2012	
2626	0	1833	2009	1989	2007	
2627	0	1957	2026	2062	2041	
2628	0	2089	2016	2098	2059	
2629	0	2158	1998	2107	2049	
2630	0	2141	1935	2045	2129	
2631	0	2128	1933	2065	2117	
2632	0	2022	1887	2023	2074	
2633	0	2036	1930	2099	2097	
2634	0	2112	2058	2117	2057	
2635	0	2089	2185	2099	1980	
2636	0	1950	2152	2007	1940	
2637	0	1926	2219	1949	1893	
2638	0	2002	2241	1935	1841	
2639	0	1890	2118	1838	1929	
2640	0	1795	1994	1871	2024	
2641	0	1949	2015	2022	1965	
2642	0	2008	2054	2084	1923	
2643	0	2161	2048	2022	2025	
2644	0	2197	2040	1940	2136	
2645	0	2145	2043	2058	2115	
2646	0	2084	2087	2099	2038	
2647	0	2036	2111	2046	2026	
2648	0	2139	2156	2186	2058	
2649	0	2314	2132	2279	2038	
2650	0	2248	2106	2238	1974	
2651	0	2177	2072	2144	2147	
2652	0	2109	2071	2072	2085	
2653	0	2023	2076	1979	2061	
2654	0	1964	2071	1937	2072	
2655	0	2005	2127	2006	2108	
2656	0	2055	2134	1985	2107	
2657	0	2080	2047	2015	2043	
2658	0	2061	1962	2053	1980	
2659	0	1960	1900	2073	1988	
2660	0	1770	1773	2035	2156	
2661	0	1735	1785	2037	2156	
2662	0	1831	1918	2040	2061	
2663	0	1892	1883	2047	2078	
2664	0	2025	1906	1986	2125	
2665	0	2194	2106	2028	2066	
2666	0	2135	2196	1970	1909	
2667	0	2136	2262	1956	1889	
2668	0	2256	2295	2005	1832	
2669	0	2256	2173	2129	1992	
2670	0	2176	2108	2157	2200	
2671	0	2056	2081	2178	2255	
2672	0	1865	2065	1997	2286	
2673	0	1922	2090	1948	2200	
2674	0	2101	2107	1991	2076	
2675	0	2165	2001	1979	1980	
2676	0	2209	1992	2046	1976	
2677	0	2283	2065	2093	1900	
2678	0	2180	2018	2057	1965	
2679	0	2066	2008	2080	2002	
2680	0	1969	2010	2105	2081	
2681	0	1846	1990	2094	2134	
2682	0	1938	2005	2171	2032	
2683	0	1984	1976	2106	2012	
2684	0	1975	1967	2041	2061	
2685	0	2047	2054	2098	1996	
2686	0	2072	2106	2062	1889	
2687	0	1932	2106	1931	1898	
2688	0	1846	2123	1940	2048	
2689	0	1905	2155	1948	2032	
2690	0	2021	2096	1999	2011	
2691	0	2017	1938	1943	2102	
2692	0	2026	1969	1993	2096	
2693	0	2003	2028	2114	1989	
2694	0	2021	1975	2211	2211	
2695	0	2130	1805	2247	2240	
2696	0	2179	1879	2134	2173	
2697	0	2170	2086	2057	1975	
2698	0	2152	2114	2008	2023	
2699	0	2204	2154	1910	2215	
2700	0	2181	2165	1774	2266	
2701	0	2110	2068	1929	2164	
2702	0	2164	2075	2210	2098	
2703	0	2090	2108	2193	2063	
2704	0	2046	2142	2119	1934	
2705	0	2007	2153	2066	1892	
2706	0	1994	2125	2036	1862	
2707	0	2005	2055	2034	1916	
2708	0	1992	1989	2014	1969	
2709	0	2022	1996	2029	1980	
2710	0	2044	1993	2082	1991	
2711	0	2031	1960	2053	2009	
2712	0	2016	1968	2015	2026	
2713	0	1977	1940	1955	2107	
2714	0	1980	1979	1962	2166	
2715	0	2095	2149	2017	2043	
2716	0	2089	2192	2078	1903	
2717	0	1962	2074	2096	1897	
2718	0	1854	2011	2126	1921	
2719	0	1953	1952	2097	2051	
2720	0	2071	1952	2096	2077	
2721	0	2073	1914	2080	2120	
2722	0	2032	1991	2024	2289	
2723	0	2009	2085	1908	2326	
2724	0	1870	2183	1838	2213	
2725	0	1811	2144	1854	2171	
2726	0	2026	2172	2059	2004	
2727	0	2224	2191	2191	1935	
2728	0	2307	2170	2230	1939	
2729	0	2394	2118	2306	1852	
2730	0	2398	2080	2253	1753	
2731	0	2198	2025	2092	1868	
2732	0	2051	2050	1996	1980	
2733	0	1876	1967	1950	2031	
2734	0	1777	1860	1907	2194	
2735	0	1720	1847	1890	2313	
2736	0	1772	1935	1909	2189	
2737	0	1867	2022	1959	2118	
2738	0	2054	2134	1968	2057	
2739	0	2203	2156	2084	2057	
2740	0	2335	2209	2168	2086	
2741	0	2318	2295	2078	1903	
2742	0	2276	2218	2042	1919	
2743	0	2258	2103	2105	1955	
2744	0	2195	1957	2175	2048	
2745	0	2155	1931	2167	2248	
2746	0	2118	1943	2212	2240	
2747	0	2029	1956	2135	2184	
2748	0	2010	2019	2047	2077	
2749	0	1923	2052	2068	2034	
2750	0	1910	2072	2056	1973	
2751	0	1959	2064	1927	1944	
2752	0	1920	2032	1870	1983	
2753	0	1863	2004	1835	2008	
2754	0	1875	1990	1924	2046	
2755	0	2000	1973	2043	2114	
2756	0	2000	1892	2063	2068	
2757	0	1942	1920	1980	1878	
2758	0	1987	1975	2065	1790	
2759	0	2243	2016	2270	1942	
2760	0	2272	2080	2317	2011	
2761	0	2114	2084	2164	2129	
2762	0	2028	2151	2052	2210	
2763	0	1973	2180	2007	2215	
2764	0	1972	2238	2086	2122	
2765	0	1879	2227	2041	2098	
2766	0	2059	2207	2060	2085	
2767	0	2172	2211	1951	2093	
2768	0	2130	2148	1906	2002	
2769	0	2078	2022	1930	1950	
2770	0	1989	1864	1945	2044	
2771	0	2006	1918	1935	2012	
2772	0	2086	2032	1946	1873	
2773	0	2044	2008	1991	1967	
2774	0	1972	1841	1989	2123	
2775	0	1994	1710	2058	2242	
2776	0	2043	1740	2001	2194	
2777	0	2081	1940	2003	2055	
2778	0	1957	2004	2035	2162	
2779	0	1871	1962	2161	2256	
2780	0	2009	2083	2280	2223	
2781	0	2161	2224	2199	2085	
2782	0	2063	2197	2126	1918	
2783	0	2084	2175	2175	1848	
2784	0	2202	2214	2221	1889	
2785	0	2293	2206	2106	1977	
2786	0	2349	2217	2038	1948	
2787	0	2289	2187	2058	1909	
2788	0	2191	2167	2086	2000	
2789	0	2122	2161	2107	2179	
2790	0	2026	2076	2059	2170	
2791	0	1943	2062	2025	2120	
2792	0	1961	2050	1968	2145	
2793	0	1983	2032	1926	2030	
2794	0	1939	1969	1822	1971	
2795	0	1964	1937	1880	1955	
2796	0	2001	1955	1979	1989	
2797	0	1997	1972	2037	2069	
2798	0	1973	1977	2075	2039	
2799	0	2031	2022	2092	1958	
2800	0	1938	2010	2051	1996	
2801	0	1885	1935	2129	2040	
2802	0	1932	1899	2211	2021	
2803	0	2036	2036	2168	1969	
2804	0	2060	2189	2079	1973	
2805	0	2010	2126	2079	2056	
2806	0	2015	2037	2078	2109	
2807	0	2102	2027	2058	2129	
2808	0	2101	2020	1978	2180	
2809	0	2124	1985	2015	2151	
2810	0	2066	1950	2133	2167	
2811	0	2065	2069	2177	2023	
2812	0	2045	2129	1878	1972	
2813	0	2130	2048	1797	1996	
2814	0	2107	2067	1777	2033	
2815	0	1999	2077	1922	1987	
2816	0	2091	2163	2061	1865	
2817	0	2131	2270	2112	1756	
2818	0	2106	2228	2081	1877	
2819	0	1969	2049	2018	2128	
2820	0	1952	2031	2015	2164	
2821	0	2011	2038	2079	2125	
2822	0	2015	1964	2039	2252	
2823	0	2010	1943	1976	2267	
2824	0	2018	1905	2104	2200	
2825	0	2106	1893	2277	2245	
2826	0	2111	1973	2194	2156	
2827	0	1956	1968	2028	1964	
2828	0	1881	1943	1993	1871	
2829	0	2032	1954	2118	1916	
2830	0	2091	1995	2153	1961	
2831	0	2103	2007	2126	2030	
2832	0	2139	2083	2135	2163	
2833	0	2207	2249	2104	2158	
2834	0	2085	2203	1981	2136	
2835	0	1993	2238	1992	1980	
2836	0	1998	2262	1986	1885	
2837	0	2091	2254	2026	1826	
2838	0	2222	2253	2057	1835	
2839	0	2242	2131	1994	1966	
2840	0	2063	2073	1913	2089	
2841	0	1953	1953	1850	2206	
2842	0	1981	1922	1931	2131	
2843	0	2014	1910	2020	2134	
2844	0	1961	1842	2030	2148	
2845	0	2054	1929	2090	2075	
2846	0	2128	2037	2114	1975	
2847	0	2030	1962	2059	1991	
2848	0	2044	1997	2124	1983	
2849	0	1988	2037	2133	1982	
2850	0	1889	1964	2039	2056	
2851	0	1895	1919	2117	2057	
2852	0	2033	2068	2265	2064	
2853	0	2170	2247	2248	2127	
2854	0	2195	2242	2265	2263	
2855	0	2179	2138	2220	2218	
2856	0	2122	2082	2087	2029	
2857	0	2096	2074	2006	1942	
2858	0	2042	2008	1976	1939	
2859	0	1998	1955	1966	2094	
2860	0	2032	1981	1904	2163	
2861	0	2096	2053	1873	2031	
2862	0	2040	2067	1847	2035	
2863	0	1991	2058	1846	2074	
2864	0	1904	2004	1935	2058	
2865	0	1822	1971	2020	1981	
2866	0	1832	1957	2005	1948	
2867	0	1909	1921	2074	1970	
2868	0	1979	1962	2096	1990	
2869	0	2047	1968	2150	2143	
2870	0	2077	1983	2144	2141	
2871	0	2106	2063	2071	2024	
2872	0	2168	2182	2015	1952	
2873	0	2130	2204	2015	2017	
2874	0	2074	2150	2082	2149	
2875	0	2057	2179	2061	2074	
2876	0	2200	2193	1941	1983	
2877	0	2378	2142	2085	2007	
2878	0	2393	2091	2168	1954	
2879	0	2250	2096	2172	1932	
2880	0	2073	2040	2180	1912	
2881	0	1911	2036	2058	1920	
2882	0	1867	2014	1983	2013	
2883	0	1919	2008	2071	2065	
2884	0	1965	2011	2087	2150	
2885	0	2081	1986	1967	2133	
2886	0	2087	2008	1888	2154	
2887	0	2115	2091	1983	2111	
2888	0	2106	2218	2047	2020	
2889	0	2080	2146	2102	2089	
2890	0	2108	2086	2162	2109	
2891	0	2010	2106	2137	2103	
2892	0	1893	2062	2040	2034	
2893	0	1911	1978	1994	2077	
2894	0	1889	1850	1998	2164	
2895	0	2021	1861	2080	2232	
2896	0	2034	1985	2054	2127	
2897	0	1929	2027	2016	2035	
2898	0	1864	2002	1989	2016	
2899	0	1879	2006	2008	2020	
2900	0	1850	2001	1998	2029	
2901	0	2009	2002	1886	1990	
2902	0	2277	2081	1891	1952	
2903	0	2337	2104	2050	1821	
2904	0	2423	2152	2168	1731	
2905	0	2414	2041	2228	1830	
2906	0	2266	1954	2228	2006	
2907	0	1911	1967	2108	2129	
2908	0	1644	2039	2003	2239	
2909	0	1684	2086	2040	2255	
2910	0	1873	2157	2112	2172	
2911	0	2018	2220	2187	2146	
2912	0	2049	2239	2164	2278	
2913	0	2073	2207	2060	2168	
2914	0	2143	2195	2012	1986	
2915	0	2255	2142	2042	1886	
2916	0	2279	2060	2047	1831	
2917	0	2162	2002	2017	1897	
2918	0	2076	2004	1952	1937	
2919	0	2063	2003	1893	1911	
2920	0	2072	2044	1883	1934	
2921	0	1973	2008	1949	2018	
2922	0	1969	1943	2008	2228	
2923	0	2039	1892	2115	2322	
2924	0	2038	1888	2175	2145	
2925	0	2072	1934	2172	2025	
2926	0	2078	1986	2143	2011	
2927	0	1990	1896	2058	2110	
2928	0	2011	1908	2088	2212	
2929	0	1925	1871	1932	2259	
2930	0	1861	1957	1886	2186	
2931	0	1829	2110	1878	2038	
2932	0	1981	2121	1907	2017	
2933	0	2009	2038	1945	1964	
2934	0	2126	2006	2049	1782	
2935	0	2228	1919	2190	1723	
2936	0	2331	1978	2289	1768	
2937	0	2246	1979	2223	1982	
2938	0	2054	2070	2185	2173	
2939	0	1938	2250	2148	2103	
2940	0	1904	2365	2014	2143	
2941	0	2005	2459	1865	2359	
2942	0	2188	2569	1978	2365	
2943	0	2204	2477	2034	2061	
2944	0	2239	2300	2085	1946	
2945	0	2250	2129	2088	1965	
2946	0	2199	2000	2063	2079	
2947	0	2022	1921	2045	2062	
2948	0	1837	1863	2014	1987	
2949	0	1800	1827	2061	1956	
2950	0	1796	1829	2018	1974	
2951	0	1815	1843	1907	1952	
2952	0	2033	1872	1969	2028	
2953	0	2118	1883	2010	2151	
2954	0	1954	1881	1954	2109	
2955	0	1991	1961	2059	2134	
2956	0	2150	2057	2172	2058	
2957	0	2218	2124	2257	1985	
2958	0	2170	2132	2206	1950	
2959	0	2180	2194	2212	1938	
2960	0	2144	2241	2167	1948	
2961	0	2109	2211	2103	2043	
2962	0	2093	2145	2086	2114	
2963	0	2023	2087	2006	2086	
2964	0	1981	2052	1950	2106	
2965	0	1928	1986	1848	2106	
2966	0	1893	1931	1740	2067	
2967	0	1903	1901	1767	2054	
2968	0	1975	1895	1849	2070	
2969	0	1921	1898	1893	2000	
2970	0	1889	1880	1954	1992	
2971	0	1922	1926	2037	1969	
2972	0	1940	2005	2153	1925	
2973	0	1961	1952	2153	1997	
2974	0	2134	1937	2246	1911	
2975	0	2163	1858	2247	2017	
2976	0	1984	1790	2224	2183	
2977	0	2041	1889	2279	2203	
2978	0	2269	2179	2210	2311	
2979	0	2427	2423	2144	2320	
2980	0	2462	2445	2107	2282	
2981	0	2365	2430	2090	2031	
2982	0	2219	2502	2032	1829	
2983	0	2006	2434	1937	1784	
2984	0	1904	2220	1953	1979	
2985	0	1942	1993	1992	2074	
2986	0	1947	1911	2003	2026	
2987	0	1997	1901	1960	2042	
2988	0	1950	1877	1870	2081	
2989	0	1922	1866	1792	2053	
2990	0	2022	1867	1972	2114	
2991	0	2122	1938	2063	2153	
2992	0	2001	2006	2095	2104	
2993	0	1965	2018	2167	1963	
2994	0	2062	2024	2192	1896	
2995	0	2199	2041	2260	1848	
2996	0	2220	2057	2212	1881	
2997	0	1997	2055	2096	2005	
2998	0	1915	2106	2021	2083	
2999	0	2022	2102	1942	2132	
3000	0	2082	2103	1945	2118	
3001	0	2082	2081	2017	2206	
3002	0	1942	1992	1911	2222	
3003	0	1864	2064	1958	2182	
3004	0	1943	2143	2028	2049	
3005	0	2074	2209	2003	1920	
3006	0	2039	2200	2105	1784	
3007	0	2053	2125	2102	1921	
3008	0	1981	1944	2026	2126	
3009	0	1991	1876	2001	1934	
3010	0	2018	1956	1979	1860	
3011	0	2020	1933	1986	2028	
3012	0	2027	1914	2043	2195	
3013	0	2135	1979	2142	2296	
3014	0	2190	2007	2010	2394	
3015	0	2054	2002	2034	2281	
3016	0	1956	2030	2087	2118	
3017	0	1916	2045	2093	1923	
3018	0	1998	2071	2090	1931	
3019	0	2184	2157	2081	2052	
3020	0	2328	2221	2181	1970	
3021	0	2340	2293	2240	1894	
3022	0	2267	2270	2153	1966	
3023	0	2173	2219	2050	1990	
3024	0	2085	2074	2005	2013	
3025	0	2018	1959	2069	2079	
3026	0	1943	1893	2013	2137	
3027	0	1876	1907	1940	2109	
3028	0	1888	1963	1884	2113	
3029	0	2055	2054	1993	2076	
3030	0	2115	2094	2039	2010	
3031	0	2028	2065	2020	1976	
3032	0	2022	2033	1976	1962	
3033	0	2008	2015	2025	1960	
3034	0	2072	2053	2150	1962	
3035	0	2016	1941	2151	2004	
3036	0	2059	1915	2143	2000	
3037	0	2106	1863	2125	2076	
3038	0	1943	1824	1945	2100	
3039	0	1888	1932	1883	2036	
3040	0	1852	1960	1932	2086	
3041	0	1761	2061	1953	2172	
3042	0	1970	2278	2121	2079	
3043	0	2086	2263	2175	2145	
3044	0	2114	2138	2119	2245	
3045	0	2175	2129	2099	2143	
3046	0	2219	2187	2046	1999	
3047	0	2216	2166	1993	1960	
3048	0	2206	2156	2050	1949	
3049	0	2144	2128	2086	1977	
3050	0	2082	2087	2043	2045	
3051	0	2041	1998	2025	2050	
3052	0	2003	1972	1998	2012	
3053	0	1969	1933	1996	2003	
3054	0	1996	1907	2015	2010	
3055	0	2023	1942	2018	1982	
3056	0	2027	1906	1994	2068	
3057	0	1918	1874	1934	2051	
3058	0	1902	1905	2078	1819	
3059	0	1899	1926	2044	1829	
3060	0	2027	1932	2111	2131	
3061	0	2120	2045	2168	2364	
3062	0	2157	2254	2107	2180	
3063	0	2163	2389	2063	2038	
3064	0	2134	2386	2030	2062	
3065	0	2078	2242	2031	2077	
3066	0	2108	2080	2091	2135	
3067	0	2068	2019	2077	2118	
3068	0	1984	1941	2063	2228	
3069	0	2121	1994	2118	2274	
3070	0	2200	2089	2118	2171	
3071	0	2136	2137	2059	1986	
3072	0	2085	2128	1973	1942	
3073	0	2060	2143	1921	1905	
3074	0	1992	2122	1874	1905	
3075	0	1961	2068	1960	1934	
3076	0	2008	2031	2118	1903	
3077	0	2141	1992	2226	1969	
3078	0	2065	1938	2116	2033	
3079	0	1948	1928	1988	2039	
3080	0	1893	1935	2015	2083	
3081	0	1878	1972	2042	2105	
3082	0	1992	2032	2065	1995	
3083	0	2111	2004	2028	1996	
3084	0	2108	1960	2077	2047	
3085	0	2136	1954	2109	2047	
3086	0	2178	1939	2080	2088	
3087	0	2132	2022	2000	2119	
3088	0	2083	2133	1994	1951	
3089	0	1993	2178	2016	1857	
3090	0	1934	2099	2074	1889	
3091	0	2024	2043	2165	1967	
3092	0	2049	1937	2184	2109	
3093	0	2004	1960	2186	2247	
3094	0	1878	2114	2085	2275	
3095	0	1855	2095	1908	2218	
3096	0	1883	2021	1890	2091	
3097	0	1979	2097	1909	1972	
3098	0	2128	2118	1914	1987	
3099	0	2260	2152	1944	1984	
3100	0	2256	2144	2041	2130	
3101	0	2179	2172	2149	2135	
3102	0	2034	2173	2145	2048	
3103	0	1996	2110	2121	1956	
3104	0	2130	2060	2132	1833	
3105	0	2180	2058	2014	1705	
3106	0	2239	2113	2124	1889	
3107	0	2154	2048	2111	2112	
3108	0	2040	2001	2001	2200	
3109	0	1962	1961	1922	2373	
3110	0	1928	1997	1949	2399	
3111	0	2027	2023	2033	2169	
3112	0	2119	1976	2114	2218	
3113	0	2065	1936	2106	2144	
3114	0	1975	1972	2008	2062	
3115	0	2044	2032	1998	1980	
3116	0	2037	1985	2011	1929	
3117	0	1971	2020	2071	2008	
3118	0	1999	2061	2186	1982	
3119	0	1993	2001	2138	1997	
3120	0	1904	1989	1955	1940	
3121	0	1851	2073	1881	1894	
3122	0	1902	2155	1948	1934	
3123	0	2082	2151	2012	1993	
3124	0	2202	2118	2065	1942	
3125	0	2237	2073	2128	1930	
3126	0	2177	2081	2129	1881	
3127	0	2090	2101	2023	1942	
3128	0	2059	2150	2021	1885	
3129	0	2151	2132	2154	1956	
3130	0	2149	2022	2201	2240	
3131	0	2120	1945	2156	2327	
3132	0	2045	1883	2080	2384	
3133	0	1953	1828	2004	2378	
3134	0	1838	1977	1976	2248	
3135	0	1869	2099	2009	2098	
3136	0	2035	2162	2049	1957	
3137	0	2110	2195	2060	1961	
3138	0	2120	2157	2027	1971	
3139	0	2084	2097	1966	1934	
3140	0	2023	1999	1933	1967	
3141	0	2084	1982	1975	1964	
3142	0	2150	2013	2093	1934	
3143	0	2150	2002	2051	1973	
3144	0	2107	1990	2069	2153	
3145	0	2016	1994	2101	2192	
3146	0	1951	2036	2078	2208	
3147	0	2042	2114	2079	2059	
3148	0	2106	2129	2089	1939	
3149	0	2120	2063	2042	1985	
3150	0	2012	1970	1937	2085	
3151	0	1948	1940	1944	2058	
3152	0	2011	1977	2015	2083	
3153	0	2058	1992	2161	2131	
3154	0	2123	2098	2317	2028	
3155	0	2042	2170	2275	1920	
3156	0	1893	2283	2125	1888	
3157	0	1888	2201	1950	1970	
3158	0	1833	2047	1790	2077	
3159	0	1946	2069	1832	2159	
3160	0	2035	2122	1888	2202	
3161	0	2204	2140	2000	2046	
3162	0	2213	2088	2058	1939	
3163	0	2242	2186	2166	1883	
3164	0	2214	2166	2147	1980	
3165	0	2118	2098	2127	2064	
3166	0	2056	2020	2062	2073	
3167	0	2000	1930	1984	2111	
3168	0	2008	1916	2008	2106	
3169	0	2011	1903	1990	2056	
3170	0	1967	1877	1965	2016	
3171	0	1986	1919	2017	1932	
3172	0	2021	1954	2042	1922	
3173	0	2014	1954	2020	2017	
3174	0	2038	1924	2013	2107	
3175	0	2102	1912	2000	2198	
3176	0	2242	2021	2044	2225	
3177	0	2202	2010	2084	2315	
3178	0	1941	1973	2118	2334	
3179	0	1766	2018	2163	2334	
3180	0	1748	2034	2257	2192	
3181	0	1723	1923	2264	2009	
3182	0	1774	1810	2223	1953	
3183	0	2040	1691	2125	2032	
3184	0	2196	1921	1964	1899	
3185	0	2278	2433	1953	1838	
3186	0	2377	2737	2073	1808	
3187	0	2370	2778	2059	1768	
3188	0	2395	2669	2033	1738	
3189	0	2359	2460	2049	1855	
3190	0	2178	2237	1999	1974	
3191	0	2156	2128	1992	2027	
3192	0	2131	2021	1969	2063	
3193	0	1992	1921	1938	2135	
3194	0	1848	1859	1877	2163	
3195	0	1740	1893	1902	2106	
3196	0	1746	1855	2029	2109	
3197	0	1938	1840	2069	2119	
3198	0	1957	1852	2041	2094	
3199	0	1807	1828	1991	2064	
3200	0	1777	1821	2138	2014	
3201	0	1914	1935	2265	1934	
3202	0	2094	1979	2352	1966	
3203	0	2208	1921	2231	2112	
3204	0	2317	1886	2086	2365	
3205	0	2336	1960	2016	2300	
3206	0	2230	2054	2001	2157	
3207	0	2171	2175	1992	2004	
3208	0	2057	2207	1952	1854	
3209	0	1958	2229	1883	1784	
3210	0	1978	2175	1839	1879	
3211	0	1983	1998	1876	2065	
3212	0	2057	1992	2008	2108	
3213	0	2081	2041	2010	2136	
3214	0	2086	2069	2050	2117	
3215	0	2030	1995	1978	2156	
3216	0	1984	2005	1950	2115	
3217	0	2009	2056	2140	1983	
3218	0	1977	2011	2206	2104	
3219	0	1999	1942	2318	2327	
3220	0	2097	2012	2319	2310	
3221	0	2152	2084	2205	2291	
3222	0	2021	2140	2143	2296	
3223	0	2037	2143	2195	2131	
3224	0	2168	2169	2172	1891	
3225	0	2243	2249	2072	1555	
3226	0	2180	2320	2016	1426	
3227	0	2157	2205	1936	1633	
3228	0	1979	2036	1852	1838	
3229	0	1957	1980	1879	2018	
3230	0	2021	1996	2005	2103	
3231	0	1933	2031	2016	2196	
3232	0	2006	2133	1965	2149	
3233	0	2019	2113	1917	2128	
3234	0	2016	2100	1950	2114	
3235	0	1960	2061	1966	2080	
3236	0	1900	1994	1993	2042	
3237	0	1921	1911	2025	2094	
3238	0	1957	1925	2034	2097	
3239	0	1978	1942	2023	2104	
3240	0	1958	1875	1987	2166	
3241	0	1988	1889	2034	2102	
3242	0	1953	1837	2024	2089	
3243	0	2031	1853	2023	2093	
3244	0	2139	1933	2196	2057	
3245	0	2186	2018	2288	2057	
3246	0	2182	2148	2202	2041	
3247	0	2152	2140	2078	1937	
3248	0	2103	2076	1988	1913	
3249	0	2068	2112	1950	1924	
3250	0	1946	2132	1865	1994	
3251	0	1924	2110	1963	2026	
3252	0	1967	2087	1941	2013	
3253	0	2043	2123	2073	2009	
3254	0	2116	2123	2262	2008	
3255	0	2225	2036	2193	2023	
3256	0	2297	1974	2202	2117	
3257	0	2323	2046	2241	2342	
3258	0	2259	2162	2156	2454	
3259	0	2199	2151	2137	2395	
3260	0	2156	2143	2105	2039	
3261	0	2031	2169	2030	1807	
3262	0	1903	2148	1973	1752	
3263	0	1925	2110	1937	1771	
3264	0	1934	2100	1955	1899	
3265	0	1943	2126	1910	1934	
3266	0	1938	2096	1888	1991	
3267	0	1928	2019	1896	2054	
3268	0	1957	1972	1957	2018	
3269	0	2021	1949	2049	2097	
3270	0	2072	1926	2142	2172	
3271	0	2072	1861	2118	2203	
3272	0	2011	1762	2057	2249	
3273	0	1964	1785	2028	2230	
3274	0	1960	1837	2156	2182	
3275	0	2012	1931	2290	2121	
3276	0	1976	2009	2145	2111	
3277	0	2074	2044	2098	2105	
3278	0	2093	2163	2126	2052	
3279	0	1962	2208	2074	1972	
3280	0	2076	2274	1997	1924	
3281	0	2150	2213	1977	1981	
3282	0	2147	2104	1971	1973	
3283	0	2116	2113	1960	1816	
3284	0	2056	2198	1969	1764	
3285	0	1921	2188	1895	1899	
3286	0	1998	2120	1892	1960	
3287	0	2141	2119	2010	1962	
3288	0	2231	2077	2118	2000	
3289	0	2177	2047	2099	2007	
3290	0	2082	2045	2023	2130	
3291	0	2075	2013	2033	2289	
3292	0	2059	1964	2024	2355	
3293	0	2021	1971	2013	2283	
3294	0	2002	2012	1959	2242	
3295	0	2046	2111	2055	2131	
3296	0	2060	2106	2201	1999	
3297	0	2082	2053	2303	1949	
3298	0	1993	1966	2117	1942	
3299	0	1943	1930	1976	1949	
3300	0	1983	1985	2039	1924	
3301	0	2012	2013	2133	1945	
3302	0	1999	1919	2175	1980	
3303	0	2016	1854	2154	1995	
3304	0	2090	1944	2081	2003	
3305	0	2234	2029	2041	2001	
3306	0	2115	2062	1871	2194	
3307	0	1935	2178	1717	2139	
3308	0	1988	2276	1817	1880	
3309	0	1998	2186	1937	1947	
3310	0	1924	2117	2011	1978	
3311	0	1939	2122	2123	1987	
3312	0	2025	2075	2115	2161	
3313	0	2142	2086	2114	2140	
3314	0	2275	2083	2172	2271	
3315	0	2228	2078	2126	2158	
3316	0	2053	2062	2160	2111	
3317	0	1970	1988	2143	2232	
3318	0	1957	1913	2070	2217	
3319	0	1972	1865	1933	2093	
3320	0	2018	1935	1973	1874	
3321	0	2212	2080	2123	1692	
3322	0	2227	2267	2143	1758	
3323	0	2132	2251	2128	1995	
3324	0	1991	2116	2055	2131	
3325	0	1952	2038	1982	2201	
3326	0	1961	2077	1972	2126	
3327	0	2051	2132	1944	1963	
3328	0	2089	2092	2028	1925	
3329	0	2192	2066	2109	1901	
3330	0	2224	1995	2121	2046	
3331	0	2165	1965	2097	2140	
3332	0	2010	1946	2020	2225	
3333	0	1887	2010	1952	2235	
3334	0	1882	2034	1940	2195	
3335	0	1966	1983	1987	2182	
3336	0	2044	1917	2081	2185	
3337	0	2070	1875	2120	2036	
3338	0	2037	1859	2109	2004	
3339	0	1962	1897	2114	1847	
3340	0	1900	1934	2106	1869	
3341	0	1827	2022	2085	2045	
3342	0	1782	2156	1977	1953	
3343	0	1845	2272	1951	1928	
3344	0	1951	2117	1994	2060	
3345	0	2122	1970	2124	2109	
3346	0	2309	2006	2198	2281	
3347	0	2408	2105	2048	2252	
3348	0	2398	2192	2014	2109	
3349	0	2255	2215	1926	2083	
3350	0	2103	2259	1855	1988	
3351	0	2007	2236	1880	1905	
3352	0	1943	2162	1980	1851	
3353	0	2013	2080	2141	1884	
3354	0	2069	2033	2110	1954	
3355	0	2091	2008	2087	2004	
3356	0	2154	2004	2134	2031	
3357	0	2076	1984	2106	1993	
3358	0	2021	2011	2066	2024	
3359	0	1970	1983	1983	2174	
3360	0	1953	1976	1985	2157	
3361	0	1927	1978	1960	2131	
3362	0	1854	1936	1981	2156	
3363	0	1904	1968	2053	2137	
3364	0	1965	1970	2074	2098	
3365	0	2049	1998	2058	2102	
3366	0	2093	1957	2107	2050	
3367	0	2093	1871	2131	1965	
3368	0	2008	1830	2087	1949	
3369	0	1980	1932	2105	2046	
3370	0	2108	2074	2211	2142	
3371	0	2193	2242	2072	2065	
3372	0	2028	2314	2050	2049	
3373	0	2067	2384	2073	2005	
3374	0	2148	2337	2098	1912	
3375	0	2289	2244	2204	1919	
3376	0	2345	2158	2207	1941	
3377	0	2276	2116	2015	1954	
3378	0	2119	2060	1887	2046	
3379	0	2039	1999	1969	2101	
3380	0	2036	1978	1990	2134	
3381	0	2003	1978	1982	2110	
3382	0	1941	1976	1950	2128	
3383	0	1844	1961	1929	2112	
3384	0	1758	1926	1996	2111	
3385	0	1898	1952	2065	2018	
3386	0	1926	1904	2093	1917	
3387	0	1979	1794	1995	2011	
3388	0	1990	1865	1898	2035	
3389	0	1971	1960	1915	2022	
3390	0	1907	2034	1904	2047	
3391	0	1857	2058	2018	1993	
3392	0	2226	2069	2284	2093	
3393	0	2388	2220	2323	2041	
3394	0	2364	2400	2268	1928	
3395	0	2234	2379	2130	1958	
3396	0	2004	2270	2061	2005	
3397	0	2025	2173	2014	2087	
3398	0	2099	2072	2068	2125	
3399	0	2048	1968	2195	2272	
3400	0	2035	1985	2244	2289	
3401	0	1984	1953	2163	2250	
3402	0	1926	1839	2122	2226	
3403	0	1842	1766	1933	2214	
3404	0	1831	1794	1774	2009	
3405	0	1924	1916	1700	2007	
3406	0	2147	2107	1788	1977	
3407	0	2269	2181	1747	1906	
3408	0	2294	2312	1815	1839	
3409	0	2154	2306	1908	1829	
3410	0	2031	2191	1868	1910	
3411	0	2030	2118	2046	1912	
3412	0	2034	2090	2216	1928	
3413	0	1917	2005	2244	2050	
3414	0	2025	1987	2389	2127	
3415	0	2201	1974	2498	2069	
3416	0	2188	2025	2363	1951	
3417	0	2096	2068	2144	1956	
3418	0	2101	2077	2044	1969	
3419	0	2020	2117	1996	1957	
3420	0	2022	2134	2061	2046	
3421	0	2012	2021	1973	2154	
3422	0	1921	1832	1936	2326	
3423	0	1972	1808	2036	2242	
3424	0	2004	1862	2034	2063	
3425	0	2019	1862	1994	2155	
3426	0	2015	1892	1966	2338	
3427	0	1992	2034	1990	2425	
3428	0	1960	2109	2065	2168	
3429	0	2023	2203	2103	1942	
3430	0	2171	2223	2080	1836	
3431	0	2198	2218	2005	1927	
3432	0	2172	2257	2021	1980	
3433	0	2054	2192	1908	1918	
3434	0	1974	2054	1936	1918	
3435	0	1990	1964	2021	1920	
3436	0	2063	2055	2031	1823	
3437	0	2066	2172	2080	1906	
3438	0	1986	2150	2064	2035	
3439	0	1966	2060	2107	2128	
3440	0	2077	2044	2185	2257	
3441	0	2178	1964	2210	2266	
3442	0	2229	1974	2054	2142	
3443	0	2203	1972	1963	2085	
3444	0	2157	1994	1956	2032	
3445	0	2022	2006	1952	2014	
3446	0	1870	2012	1967	1980	
3447	0	1881	2002	1986	1978	
3448	0	1906	1976	2006	1949	
3449	0	2071	1920	2074	1979	
3450	0	2077	1875	2066	2013	
3451	0	2015	1849	2126	2072	
3452	0	2076	1934	2114	2178	
3453	0	1966	1941	2122	2211	
3454	0	1898	2051	2112	2192	
3455	0	1904	2166	2109	2141	
3456	0	2035	2285	2133	2096	
3457	0	2088	2267	2098	2038	
3458	0	2182	2300	2055	1929	
3459	0	2198	2274	1983	1830	
3460	0	2210	2207	2026	1891	
3461	0	2175	2134	2057	1952	
3462	0	2101	2060	2024	2027	
3463	0	2027	1953	1993	2084	
3464	0	2041	1936	1965	2079	
3465	0	2073	1982	1972	2088	
3466	0	2056	2030	2002	2083	
3467	0	2022	1999	2033	2106	
3468	0	1915	1931	2014	2122	
3469	0	1935	1908	1993	2092	
3470	0	2034	1905	1992	2048	
3471	0	2094	1902	1991	2057	
3472	0	2028	1908	1989	2068	
3473	0	1967	1967	2073	2020	
3474	0	1858	2024	2124	1962	
3475	0	1597	2062	2077	1957	
3476	0	1477	2056	2011	1998	
3477	0	1738	2077	2048	1967	
3478	0	2140	2063	2080	2011	
3479	0	2402	2082	2072	2070	
3480	0	2471	2153	2019	2137	
3481	0	2541	2209	2175	2121	
3482	0	2539	2266	2279	2103	
3483	0	2431	2261	2297	2077	
3484	0	2246	2213	2166	1977	
3485	0	2129	2191	2094	1881	
3486	0	2044	2093	2035	1909	
3487	0	1982	1996	1938	2056	
3488	0	1975	1961	1934	2138	
3489	0	1975	1988	1954	2122	
3490	0	1897	1956	1965	2139	
3491	0	1837	1944	1972	2072	
3492	0	1932	1938	2015	2036	
3493	0	2058	1924	2056	1999	
3494	0	2083	1838	2055	2095	
3495	0	2021	1819	2034	2168	
3496	0	2014	1934	2083	2095	
3497	0	1912	2014	2091	2185	
3498	0	1864	2025	2121	2253	
3499	0	1924	2028	2107	2098	
3500	0	1944	2138	2055	1924	
3501	0	1971	2232	2031	1789	
3502	0	2094	2252	2037	1792	
3503	0	2141	2236	2040	1905	
3504	0	2121	2206	1981	2007	
3505	0	2137	2198	1940	2200	
3506	0	2149	2177	1901	2230	
3507	0	2151	2116	1981	2125	
3508	0	2133	2081	2027	2023	
3509	0	2126	2016	2055	2085	
3510	0	2093	1954	1974	2080	
3511	0	1991	1854	1978	2039	
3512	0	2004	1872	2121	1994	
3513	0	1995	1886	2113	2012	
3514	0	2026	1908	2079	2042	
3515	0	1999	1920	2054	1927	
3516	0	2013	1924	2074	1892	
3517	0	2022	1928	2058	2011	
3518	0	2075	1927	2043	2123	
3519	0	2119	2000	2023	2217	
3520	0	2084	2095	2084	2201	
3521	0	2010	2112	2085	2174	
3522	0	1798	2075	2026	2162	
3523	0	1843	2157	2038	2007	
3524	0	2007	2247	2109	1877	
3525	0	2255	2310	2220	2008	
3526	0	2310	2327	2222	2254	
3527	0	2215	2287	2190	2217	
3528	0	2095	2216	2085	1992	
3529	0	2069	2142	2015	1868	
3530	0	2043	2119	1967	1821	
3531	0	2038	2066	1980	1857	
3532	0	2023	2008	1992	1946	
3533	0	1962	1908	1948	2065	
3534	0	1945	1911	1920	2033	
3535	0	1936	1925	1918	2062	
3536	0	1917	1876	2013	2142	
3537	0	1913	1826	1982	2240	
3538	0	1986	1964	1984	2120	
3539	0	2022	2008	2040	2072	
3540	0	2038	1926	2117	2099	
3541	0	2090	1943	2111	1984	
3542	0	2103	1985	2089	1983	
3543	0	2227	2090	2177	2039	
3544	0	2272	2135	2275	2050	
3545	0	2267	2120	2277	2012	
3546	0	2175	2060	2256	1976	
3547	0	2072	1964	2109	2066	
3548	0	2053	1965	1973	2126	
3549	0	2009	1978	1917	2191	
3550	0	1883	2016	1892	2159	
3551	0	1817	2172	1968	1926	
3552	0	1900	2248	2016	1859	
3553	0	2021	2250	2013	1945	
3554	0	2062	2195	2031	1994	
3555	0	2145	2172	2043	1988	
3556	0	2194	2136	1974	2038	
3557	0	2165	2049	1908	2044	
3558	0	2181	2013	1993	2045	
3559	0	2223	2028	2095	2085	
3560	0	2121	2030	1961	2122	
3561	0	1972	2030	1911	2111	
3562	0	2019	2032	2019	2113	
3563	0	2024	2034	2008	2059	
3564	0	1956	2015	1966	2056	
3565	0	1974	2021	1979	2063	
3566	0	2036	2031	2110	2041	
3567	0	2038	2036	2101	2046	
3568	0	2020	1993	2124	2113	
3569	0	2029	1968	2179	2132	
3570	0	2071	1964	2213	2079	
3571	0	2058	1968	2184	1996	
3572	0	1998	1983	2085	2113	
3573	0	1981	2039	2040	2134	
3574	0	1974	2069	2033	2031	
3575	0	1939	2040	2002	2000	
3576	0	1951	2001	1969	1980	
3577	0	1931	1993	1898	2000	
3578	0	1999	1989	1893	2019	
3579	0	2050	2032	1939	1974	
3580	0	2057	2033	1962	1939	
3581	0	2054	1989	2000	1860	
3582	0	2120	2055	2092	1799	
3583	0	2227	2179	2239	1894	
3584	0	2221	2179	2306	2083	
3585	0	1994	2092	2220	2267	
3586	0	1946	2122	2159	2326	
3587	0	2180	2187	2234	2252	
3588	0	2192	2232	2133	2109	
3589	0	2105	2208	2021	2064	
3590	0	2020	2125	1988	2090	
3591	0	2019	2096	2001	2083	
3592	0	2075	2057	2057	2050	
3593	0	2084	1997	2038	2039	
3594	0	2066	1976	2017	2024	
3595	0	2056	1970	2035	2031	
3596	0	2077	1943	2007	2050	
3597	0	2055	1920	1962	2047	
3598	0	2044	1923	1978	2054	
3599	0	2040	1943	2007	2029	
3600	0	2006	1986	1964	2002	
3601	0	1888	2024	1937	2015	
3602	0	1873	1975	1985	2040	
3603	0	1982	1998	2081	2061	
3604	0	2014	2070	2087	2052	
3605	0	2040	2131	2091	2005	
3606	0	2006	2087	2075	1956	
3607	0	1936	1990	2017	1933	
3608	0	1946	1986	2066	1950	
3609	0	1961	2049	2061	1932	
3610	0	1987	2140	1968	1958	
3611	0	2111	2111	2025	2109	
3612	0	2226	2033	2213	2310	
3613	0	2253	2075	2204	2303	
3614	0	2112	2130	2047	2152	
3615	0	2120	2143	2031	2074	
3616	0	2139	2114	2050	2030	
3617	0	2181	2153	2057	1966	
3618	0	2097	2066	2014	2048	
3619	0	2055	1929	2049	2125	
3620	0	1965	1827	1992	2158	
3621	0	1959	1899	2097	2132	
3622	0	2087	2032	2080	2061	
3623	0	2192	2227	1961	1996	
3624	0	2226	2317	1964	1944	
3625	0	2196	2240	2049	1938	
3626	0	2172	2180	2132	1947	
3627	0	2088	2118	2103	2021	
3628	0	1998	2047	2099	2069	
3629	0	1953	1956	2042	2075	
3630	0	1855	1892	1943	2084	
3631	0	1811	1874	1932	2052	
3632	0	1774	1848	1946	1968	
3633	0	1760	1851	1894	1936	
3634	0	1961	1896	1912	1941	
3635	0	2122	1968	2006	1929	
3636	0	2220	2100	2106	1926	
3637	0	2296	2151	2193	1978	
3638	0	2293	2216	2177	2024	
3639	0	2201	2257	2094	2080	
3640	0	2157	2222	2103	2113	
3641	0	2077	2124	2042	2218	
3642	0	2029	2094	2008	2142	
3643	0	1921	1987	1988	2045	
3644	0	1904	1963	2087	1984	
3645	0	1973	1975	2130	2082	
3646	0	1951	1971	2072	2102	
3647	0	1902	1887	2025	2126	
3648	0	1954	1938	2049	2046	
3649	0	2101	2121	2073	1951	
3650	0	2145	2112	2118	2044	
3651	0	2147	2115	2134	2096	
3652	0	2114	2158	2151	2154	
3653	0	2053	2179	2053	2079	
3654	0	1876	2098	1864	2212	
3655	0	1875	2073	1887	2240	
3656	0	2028	2080	2017	2111	
3657	0	2148	2015	2130	2110	
3658	0	2134	2019	2146	2019	
3659	0	2132	2039	2173	2059	
3660	0	2050	2054	2151	2005	
3661	0	2008	2027	2030	1969	
3662	0	1977	1962	1953	1996	
3663	0	2041	1943	1968	1994	
3664	0	2097	1952	1982	2015	
3665	0	2057	1937	2005	2003	
3666	0	2026	1974	2049	2017	
3667	0	1970	1908	1978	2157	
3668	0	2073	1916	2005	2155	
3669	0	2146	2021	1991	1945	
3670	0	2134	2168	2056	1662	
3671	0	2077	2227	2083	1683	
3672	0	2007	2213	2052	1910	
3673	0	1866	2163	2069	2105	
3674	0	1875	2101	2099	2219	
3675	0	2036	2040	2151	2290	
3676	0	2123	2042	2082	2090	
3677	0	2183	2070	2055	1981	
3678	0	2234	2142	2111	1902	
3679	0	2191	2142	2163	2035	
3680	0	2188	2121	2159	2220	
3681	0	2242	2172	2085	2091	
3682	0	2154	2100	1968	2065	
3683	0	2012	1944	1874	2136	
3684	0	1972	1853	1880	2164	
3685	0	2002	1903	1982	2130	
3686	0	1978	1909	1984	2054	
3687	0	1970	1989	1959	1955	
3688	0	1951	1996	1962	1980	
3689	0	1886	1982	1996	2045	
3690	0	1851	2118	1983	1882	
3691	0	1999	2222	2053	1874	
3692	0	2108	2190	2121	1954	
3693	0	2170	2102	2169	2089	
3694	0	2223	2018	2162	2148	
3695	0	2152	2020	2135	2122	
3696	0	2057	2060	2111	2084	
3697	0	1945	1999	2056	2231	
3698	0	1927	1915	2042	2245	
3699	0	1998	2001	1972	2058	
3700	0	2038	2030	1946	2060	
3701	0	2057	2044	1961	2066	
3702	0	2044	2022	1971	1997	
3703	0	1994	1969	1980	1990	
3704	0	2003	1993	2065	1969	
3705	0	2125	2014	2122	1981	
3706	0	2167	2028	2133	1989	
3707	0	2088	1999	2101	2061	
3708	0	2007	2054	2046	2171	
3709	0	1882	2122	2050	2177	
3710	0	1931	2150	2123	2116	
3711	0	1981	2149	2198	1983	
3712	0	1928	2014	2155	1798	
3713	0	1901	1924	2031	1871	
3714	0	1950	1895	1963	2049	
3715	0	2061	1935	1960	2272	
3716	0	2242	2002	2120	2289	
3717	0	2340	2180	2145	2151	
3718	0	2348	2271	2156	2002	
3719	0	2353	2309	2212	1868	
3720	0	2275	2351	2160	1834	
3721	0	2114	2311	2106	1854	
3722	0	1930	2196	2040	1950	
3723	0	1844	2066	1921	2069	
3724	0	1787	1939	1860	2204	
3725	0	1882	1917	1916	2177	
3726	0	2024	1852	2004	2134	
3727	0	2127	1849	1985	2070	
3728	0	2104	1854	1983	2070	
3729	0	2173	1875	2009	2150	
3730	0	2085	1910	1978	2156	
3731	0	2000	2060	1914	2049	
3732	0	1931	2141	1883	1957	
3733	0	1870	2130	1975	1913	
3734	0	1946	2111	2046	1998	
3735	0	2081	2105	2025	2104	
3736	0	2101	2123	2022	2037	
3737	0	2137	2152	2098	1982	
3738	0	2100	2098	2142	2008	
3739	0	2118	2004	2213	2079	
3740	0	2185	2068	2252	2047	
3741	0	2190	2134	2227	1978	
3742	0	2093	2028	2149	2016	
3743	0	2015	1999	2097	2049	
3744	0	1991	2078	2062	2027	
3745	0	1966	2094	2015	2072	
3746	0	1954	2043	1940	2111	
3747	0	2053	2027	1915	2059	
3748	0	2085	2040	1959	2027	
3749	0	2075	2030	2041	2035	
3750	0	2066	2002	2040	2052	
3751	0	2032	1998	2033	2053	
3752	0	1969	1957	2037	2040	
3753	0	1967	1902	2009	2033	
3754	0	2041	1881	1992	2051	
3755	0	2087	1823	1969	2084	
3756	0	2107	1796	1988	2115	
3757	0	2046	1867	2058	2094	
3758	0	1836	1965	2095	2053	
3759	0	1663	2023	2175	2175	
3760	0	1666	2116	2165	2186	
3761	0	1797	2147	2088	2051	
3762	0	1844	2164	1985	1978	
3763	0	2208	2308	2116	1925	
3764	0	2474	2439	2099	1892	
3765	0	2377	2351	1952	1996	
3766	0	2361	2229	2041	1991	
3767	0	2351	2198	2045	2008	
3768	0	2303	2177	2047	2025	
3769	0	2184	2158	1996	2038	
3770	0	2041	2099	2014	2067	
3771	0	1962	2004	1947	2126	
3772	0	2003	1906	1983	2166	
3773	0	2132	1904	2093	2129	
3774	0	2132	1896	2110	2070	
3775	0	1978	1868	2013	2023	
3776	0	1812	1888	2000	1900	
3777	0	1714	1875	2042	1908	
3778	0	1786	1865	2048	2016	
3779	0	2024	1869	2150	2154	
3780	0	2125	1887	2156	2134	
3781	0	2118	2123	2068	2071	
3782	0	2126	2379	2068	2013	
3783	0	2071	2363	2058	2051	
3784	0	2037	2240	2042	2097	
3785	0	2010	2109	1993	2020	
3786	0	1988	1984	2042	2025	
3787	0	2051	1890	2092	2017	
3788	0	2118	1998	2163	2051	
3789	0	2137	2027	2286	2046	
3790	0	2139	1910	2270	2060	
3791	0	2214	1991	2148	1994	
3792	0	2068	2062	2050	2065	
3793	0	1960	2101	1942	2211	
3794	0	1955	2119	1807	2308	
3795	0	1920	2124	1843	2276	
3796	0	2091	2185	1965	2062	
3797	0	2249	2172	2058	1978	
3798	0	2269	2147	2155	1962	
3799	0	2145	2076	2082	1927	
3800	0	2005	2055	2032	1894	
3801	0	1902	2033	1953	1894	
3802	0	1914	2004	1947	2003	
3803	0	2032	1977	1955	2044	
3804	0	2014	1987	1951	1932	
3805	0	1981	1945	2036	1974	
3806	0	1920	1861	2056	2122	
3807	0	1868	1801	2042	2080	
3808	0	2026	1902	2055	2009	
3809	0	2150	2042	2136	2077	
3810	0	2179	2153	2150	2169	
3811	0	2076	2209	2050	2071	
3812	0	2045	2173	2040	1906	
3813	0	2008	2054	2084	1922	
3814	0	2019	2058	2076	1969	
3815	0	1919	2133	1922	1999	
3816	0	1945	2151	1945	2120	
3817	0	2071	2126	2052	2191	
3818	0	2238	2128	2005	2060	
3819	0	2304	2192	2051	2062	
3820	0	2302	2172	2165	2163	
3821	0	2213	2100	2194	2130	
3822	0	2059	2076	2156	2030	
3823	0	2040	2039	2109	1952	
3824	0	2002	2026	2053	2044	
3825	0	1854	2027	1960	2064	
3826	0	1810	1977	1951	2119	
3827	0	1804	1927	1969	2093	
3828	0	1952	1924	2027	2027	
3829	0	2048	1939	2052	2063	
3830	0	2131	1998	1986	2110	
3831	0	2146	2045	2023	2059	
3832	0	2040	2029	1971	2008	
3833	0	1996	1987	1979	1992	
3834	0	2066	1970	2086	1973	
3835	0	2134	1922	2203	1973	
3836	0	2110	1867	2238	2067	
3837	0	2041	1917	2146	2150	
3838	0	1993	2025	2095	2120	
3839	0	1868	2094	1996	2089	
3840	0	1900	2143	1955	2050	
3841	0	2059	2106	2080	2063	
3842	0	2256	2130	2180	1984	
3843	0	2296	2213	2134	1977	
3844	0	2281	2135	2018	2083	
3845	0	2197	1942	1980	2042	
3846	0	1973	1952	2091	1938	
3847	0	1802	1986	2041	2002	
3848	0	1847	2089	2011	2031	
3849	0	1946	2211	1989	2160	
3850	0	2075	2211	2001	2304	
3851	0	2145	2165	2052	2321	
3852	0	2183	2140	1987	2221	
3853	0	2168	2119	1970	2062	
3854	0	2086	2018	2080	2002	
3855	0	2081	2065	2100	1927	
3856	0	2082	2157	2143	1809	
3857	0	2078	2189	2175	1770	
3858	0	2076	2136	2106	1808	
3859	0	2005	2018	1987	1911	
3860	0	1850	1912	1824	1979	
3861	0	1795	1905	1874	1969	
3862	0	1899	1903	1984	1975	
3863	0	2066	1878	2039	2067	
3864	0	2165	1934	1977	2111	
3865	0	2181	1940	1959	2096	
3866	0	2092	1867	2090	1994	
3867	0	2058	1848	2165	1944	
3868	0	1868	1876	1972	2061	
3869	0	1834	2037	1927	2243	
3870	0	2009	2178	1992	2357	
3871	0	2165	2194	2005	2341	
3872	0	2165	2278	2021	2154	
3873	0	2083	2339	2019	2118	
3874	0	2037	2343	2126	2113	
3875	0	2138	2353	2249	1935	
3876	0	2153	2217	2314	1910	
3877	0	2173	2093	2354	1913	
3878	0	2168	2077	2298	2009	
3879	0	2124	2007	2204	2032	
3880	0	2119	1973	2116	2084	
3881	0	2101	1994	2064	2021	
3882	0	2055	1988	2097	1997	
3883	0	2004	1967	2020	2024	
3884	0	1909	1923	1882	2071	
3885	0	1892	1940	1881	2039	
3886	0	1957	1936	1884	2025	
3887	0	2017	1882	1966	2091	
3888	0	2022	1883	2050	2130	
3889	0	1965	1890	2051	2131	
3890	0	2032	1941	2042	2133	
3891	0	2115	1998	2100	2175	
3892	0	2166	2074	2155	2088	
3893	0	2139	2131	2056	1956	
3894	0	2131	2184	1968	1835	
3895	0	2006	2078	1842	1933	
3896	0	1841	1910	1771	1985	
3897	0	1762	1779	1791	2091	
3898	0	1814	1780	1893	2120	
3899	0	1987	1909	1993	2042	
3900	0	2107	2073	2097	2076	
3901	0	2107	2219	2141	1962	
3902	0	2140	2329	2167	1936	
3903	0	2106	2360	2096	2040	
3904	0	2252	2449	2084	2047	
3905	0	2333	2414	2099	2036	
3906	0	2252	2251	2134	2155	
3907	0	2140	2073	2144	2274	
3908	0	2061	2076	2188	2132	
3909	0	2005	1965	2168	2063	
3910	0	2014	1968	2244	2033	
3911	0	1919	1968	2145	1957	
3912	0	1942	1994	2012	1866	
3913	0	2003	2017	1997	1763	
3914	0	2006	2015	1970	1914	
3915	0	2019	2065	1976	2070	
3916	0	2180	2129	2074	2132	
3917	0	2185	2123	2016	2120	
3918	0	2156	2095	2041	2061	
3919	0	2123	2012	2083	2058	
3920	0	2095	1989	2091	1966	
3921	0	2053	1936	1991	1979	
3922	0	2019	1914	1970	2070	
3923	0	1972	1917	2015	2026	
3924	0	1902	1901	1912	2115	
3925	0	1819	1923	1822	2251	
3926	0	1854	1960	1898	2206	
3927	0	2020	2006	2016	2195	
3928	0	2017	2061	2058	2127	
3929	0	1969	2123	2082	2046	
3930	0	1926	2071	2102	2134	
3931	0	1994	1993	2159	2107	
3932	0	2084	2002	2199	2140	
3933	0	2038	2042	2148	2022	
3934	0	1916	2082	1995	1952	
3935	0	2032	2150	1981	1926	
3936	0	2153	2168	2068	1952	
3937	0	2139	2195	2068	1922	
3938	0	2124	2188	2022	1832	
3939	0	2210	2127	2069	1922	
3940	0	2331	2050	2071	2032	
3941	0	2380	1931	2080	2132	
3942	0	2301	1879	2162	2238	
3943	0	2023	1885	2048	2236	
3944	0	1901	1974	2077	2171	
3945	0	1957	2082	2153	2056	
3946	0	1901	2129	2003	2077	
3947	0	1875	2133	1944	2067	
3948	0	2011	2168	2050	2003	
3949	0	2058	2144	2019	1941	
3950	0	2076	2110	1968	1911	
3951	0	2010	2072	1923	1890	
3952	0	2010	2058	1992	1924	
3953	0	1927	1967	1973	2015	
3954	0	1930	1942	1996	2078	
3955	0	1903	1930	2068	2158	
3956	0	1864	1890	2095	2192	
3957	0	1914	1919	2015	2149	
3958	0	2046	1958	2017	2058	
3959	0	2193	2013	1928	1994	
3960	0	2237	2035	1940	2041	
3961	0	2241	2096	2125	2059	
3962	0	2230	2136	2252	2077	
3963	0	2289	2096	2270	2097	
3964	0	2313	2114	2258	2003	
3965	0	2170	2177	2143	1949	
3966	0	1951	2156	2038	1979	
3967	0	1927	2032	2009	2069	
3968	0	2014	1967	2032	1984	
3969	0	2062	1994	2026	1945	
3970	0	1969	2069	1926	2028	
3971	0	2001	2244	1914	2002	
3972	0	2026	2198	1995	1923	
3973	0	2029	2190	2028	1905	
3974	0	2105	2184	2094	2047	
3975	0	2135	2148	2169	2259	
3976	0	2127	2038	2148	2366	
3977	0	2082	1981	2023	2337	
3978	0	2026	2033	1969	2140	
3979	0	1982	2028	1991	1999	
3980	0	1943	2001	2022	1930	
3981	0	1906	1963	2039	1928	
3982	0	1912	1898	1974	1984	
3983	0	1966	1939	2015	1987	
3984	0	2022	1970	2146	2007	
3985	0	2068	2070	2198	1983	
3986	0	2055	2059	2054	2066	
3987	0	2043	2061	1958	2174	
3988	0	2052	2008	1941	2224	
3989	0	2097	2007	1938	2170	
3990	0	2110	2006	1966	2175	
3991	0	2000	1997	1998	2067	
3992	0	2001	2084	2115	1944	
3993	0	2022	2083	2094	1909	
3994	0	1948	1981	2069	1982	
3995	0	1926	1872	2119	2096	
3996	0	1973	1939	2157	2170	
3997	0	2062	1914	2182	2223	
3998	0	2040	2049	2096	2026	
3999	0	2047	2188	2037	1827	
4000	0	2154	2216	1963	1775	
4001	0	2284	2263	1960	1791	
4002	0	2331	2298	2050	1927	
4003	0	2226	2194	2003	1969	
4004	0	2131	2021	2042	2021	
4005	0	2006	1920	2004	2200	
4006	0	1836	1888	2051	2192	
4007	0	1770	1904	2046	2100	
4008	0	1789	1963	2040	1964	
4009	0	2018	2102	2030	1897	
4010	0	2111	2139	1960	2093	
4011	0	2100	2242	1927	2217	
4012	0	2102	2310	2025	2166	
4013	0	2275	2209	2146	2168	
4014	0	2297	2145	2202	2107	
4015	0	2181	2112	2175	2123	
4016	0	2064	2028	2080	2099	
4017	0	2074	2037	2114	1957	
4018	0	2049	2006	2081	1924	
4019	0	1976	1933	2041	1982	
4020	0	1869	1847	1971	2093	
4021	0	1918	1840	1936	2065	
4022	0	1989	1955	1994	2173	
4023	0	2096	2058	2086	2169	
4024	0	2221	2104	2036	2068	
4025	0	2232	2066	2017	2099	
4026	0	2148	2071	2084	2081	
4027	0	2108	2027	2076	2006	
4028	0	2038	1953	2068	2038	
4029	0	1922	1963	2009	2027	
4030	0	1924	2022	1948	1942	
4031	0	1894	2092	1950	1913	
4032	0	1864	2061	2012	2003	
4033	0	1921	2079	2078	2039	
4034	0	1990	2087	2128	2086	
4035	0	2080	2097	2205	2009	
4036	0	2096	2124	2183	1936	
4037	0	2031	2126	2104	1920	
4038	0	2033	2146	2050	1994	
4039	0	2126	2081	2000	2061	
4040	0	2153	2012	2042	2118	
4041	0	2120	2024	2049	2142	
4042	0	2125	2023	2044	2167	
4043	0	2069	1993	1980	2149	
4044	0	2066	2039	1997	1972	
4045	0	2037	2057	2044	1915	
4046	0	2001	2057	2042	1952	
4047	0	2016	2022	2058	2024	
4048	0	2004	1964	2049	2088	
4049	0	2011	1979	2047	2112	
4050	0	2031	2045	2002	2123	
4051	0	2020	2103	2027	2107	
4052	0	1995	2028	1951	2151	
4053	0	1944	1951	1898	2197	
4054	0	1942	1949	1951	2154	
4055	0	1972	1904	2042	2119	
4056	0	2035	1953	2131	1976	
4057	0	2092	2063	2141	1842	
4058	0	2100	2128	2157	1937	
4059	0	2114	2144	2127	1998	
4060	0	2160	2175	2124	1986	
4061	0	2175	2167	2100	1983	
4062	0	2195	2148	2085	2040	
4063	0	2223	2140	2068	2051	
4064	0	2177	2113	2054	2024	
4065	0	2123	2077	2077	2037	
4066	0	2063	2056	2041	2057	
4067	0	1979	2014	1961	2037	
4068	0	1977	1998	1957	2028	
4069	0	1919	1930	1931	2067	
4070	0	1909	1913	1938	2068	
4071	0	1786	1760	1927	2102	
4072	0	1828	1781	2000	2123	
4073	0	2086	1907	2151	2078	
4074	0	2113	1966	2082	2124	
4075	0	2086	2011	1951	2193	
4076	0	2016	2086	1960	2206	
4077	0	2109	2124	2039	2111	
4078	0	2011	2161	2080	1971	
4079	0	2019	2305	2169	1901	
4080	0	2154	2495	2241	1771	
4081	0	2299	2537	2260	1806	
4082	0	2214	2276	2230	1957	
4083	0	2170	2135	2169	2001	
4084	0	2142	2108	2046	2039	
4085	0	2113	2090	1997	2051	
4086	0	2100	2034	1971	2058	
4087	0	2137	2019	1997	2095	
4088	0	2121	1977	2029	2059	
4089	0	2031	1913	2043	2128	
4090	0	1909	1892	1962	2190	
4091	0	1842	1872	1935	2217	
4092	0	1864	1883	1988	2214	
4093	0	1910	1893	1980	2182	
4094	0	1915	1912	1960	2076	
4095	0	1959	1906	2000	2085	
4096	0	1968	1915	1951	2166	
4097	0	1981	1924	1908	2162	
4098	0	2057	1983	2003	1937	
4099	0	2105	2027	2086	1835	
4100	0	2059	1962	2105	1859	
4101	0	2018	1929	2119	1796	
4102	0	2070	2126	2189	1777	
4103	0	2142	2277	2231	1997	
4104	0	2091	2249	2185	2224	
4105	0	2047	2288	2156	2274	
4106	0	2198	2337	2229	2133	
4107	0	2227	2328	2135	1952	
4108	0	2145	2241	1996	1962	
4109	0	2158	2224	1987	1926	
4110	0	2090	2132	1926	1969	
4111	0	2015	1973	1893	2096	
4112	0	1926	1878	1913	2126	
4113	0	1946	1912	1964	2098	
4114	0	1983	1962	2050	2159	
4115	0	2046	1963	2153	2237	
4116	0	2126	1971	2149	2143	
4117	0	2101	1978	2071	2074	
4118	0	2098	2044	2015	1982	
4119	0	2056	2032	1945	1953	
4120	0	1983	1969	1944	1936	
4121	0	1958	1918	1957	1978	
4122	0	1878	1830	1873	2023	
4123	0	1824	1832	1812	1998	
4124	0	1785	1948	1876	1976	
4125	0	1800	2027	1935	2050	
4126	0	1947	1988	2150	2202	
4127	0	2198	1999	2274	2284	
4128	0	2299	2044	2260	2204	
4129	0	2335	2055	2233	2155	
4130	0	2353	2184	2288	2041	
4131	0	2332	2299	2276	2027	
4132	0	2182	2344	2238	2076	
4133	0	2119	2310	2235	2053	
4134	0	2099	2243	2082	1949	
4135	0	2048	2192	2023	1797	
4136	0	2043	2120	1952	1835	
4137	0	2006	2049	1894	1978	
4138	0	1941	2002	1881	2055	
4139	0	1943	1975	1893	2048	
4140	0	1968	1966	1912	2078	
4141	0	1969	1952	1945	2102	
4142	0	2013	1952	1978	2101	
4143	0	2076	1952	2067	2096	
4144	0	1975	1911	2061	2092	
4145	0	1893	1890	2010	2078	
4146	0	1854	1900	2011	2056	
4147	0	1934	1939	2126	2034	
4148	0	2041	1972	2174	2021	
4149	0	2125	2009	2146	1954	
4150	0	2046	1978	2063	1946	
4151	0	1946	1905	1980	2025	
4152	0	1851	1968	2033	1997	
