# OpenSignals Text File Format
# {"00:07:80:3B:46:6F": {"sensor": ["EMG", "EMG", "EMG", "EMG"], "device name": "00:07:80:3B:46:6F", "column": ["nSeq", "DI", "Direito Multi", "Esquerdo Multi", "Direito ES", "Esquerdo ES"], "sync interval": 2, "time": "12:41:6.713", "comments": "", "device connection": "BTH00:07:80:3B:46:6F", "channels": [1, 2, 3, 4], "date": "2016-9-26", "mode": 0, "digital IO": [0, 1], "firmware version": 514, "device": "bioplux", "position": 0, "sampling rate": 1000, "label": ["Direito Multi", "Esquerdo Multi", "Direito ES", "Esquerdo ES"], "resolution": [12, 12, 12, 12], "special": [{}, {}, {}, {}]}}
# EndOfHeader
0	0	2049	2054	2043	2058	
1	0	2054	2046	2048	2046	
2	0	2049	2044	2044	2053	
3	0	2049	2047	2041	2042	
4	0	2052	2048	2048	2055	
5	0	2048	2053	2043	2036	
6	0	2045	2046	2045	2048	
7	0	2047	2050	2041	2045	
8	0	2046	2045	2049	2044	
9	0	2049	2053	2050	2048	
10	0	2048	2046	2050	2049	
11	0	2049	2053	2049	2042	
12	0	2053	2043	2053	2042	
13	0	2051	2049	2051	2054	
14	0	2049	2044	2053	2041	
15	0	2051	2048	2058	2052	
16	0	2049	2049	2043	2054	
17	0	2051	2051	2050	2046	
18	0	2049	2046	2050	2060	
19	0	2047	2048	2050	2046	
20	0	2048	2055	2051	2054	
21	0	2048	2049	2051	2054	
22	0	2051	2056	2054	2043	
23	0	2050	2045	2040	2057	
24	0	2047	2056	2052	2043	
25	0	2048	2046	2051	2051	
26	0	2047	2048	2038	2038	
27	0	2042	2048	2046	2047	
28	0	2047	2046	2046	2038	
29	0	2047	2050	2051	2053	
30	0	2050	2047	2045	2037	
31	0	2053	2045	2050	2050	
32	0	2054	2046	2042	2041	
33	0	2056	2051	2053	2044	
34	0	2053	2048	2055	2047	
35	0	2049	2048	2046	2055	
36	0	2051	2048	2051	2054	
37	0	2046	2052	2053	2050	
38	0	2049	2047	2043	2057	
39	0	2052	2053	2052	2040	
40	0	2051	2056	2047	2054	
41	0	2052	2047	2052	2045	
42	0	2048	2049	2042	2052	
43	0	2048	2044	2047	2054	
44	0	2046	2054	2049	2043	
45	0	2050	2044	2042	2053	
46	0	2050	2051	2051	2036	
47	0	2048	2046	2052	2046	
48	0	2048	2050	2038	2038	
49	0	2049	2045	2050	2048	
50	0	2050	2049	2045	2057	
51	0	2047	2045	2038	2045	
52	0	2050	2047	2053	2057	
53	0	2049	2045	2055	2040	
54	0	2051	2052	2041	2054	
55	0	2048	2047	2054	2045	
56	0	2049	2053	2048	2054	
57	0	2049	2052	2053	2048	
58	0	2050	2047	2042	2046	
59	0	2051	2052	2051	2052	
60	0	2052	2045	2052	2040	
61	0	2051	2053	2043	2055	
62	0	2051	2046	2048	2040	
63	0	2048	2052	2050	2056	
64	0	2044	2052	2039	2042	
65	0	2044	2046	2050	2053	
66	0	2049	2053	2051	2037	
67	0	2046	2051	2044	2049	
68	0	2046	2047	2047	2036	
69	0	2046	2046	2044	2052	
70	0	2050	2051	2052	2037	
71	0	2053	2046	2055	2049	
72	0	2048	2048	2040	2039	
73	0	2049	2043	2047	2054	
74	0	2050	2049	2050	2038	
75	0	2054	2048	2051	2056	
76	0	2052	2051	2047	2040	
77	0	2051	2055	2044	2058	
78	0	2053	2043	2051	2043	
79	0	2051	2050	2046	2058	
80	0	2046	2046	2045	2039	
81	0	2050	2048	2048	2050	
82	0	2050	2046	2044	2043	
83	0	2047	2054	2050	2050	
84	0	2047	2046	2050	2047	
85	0	2047	2050	2047	2039	
86	0	2047	2044	2049	2044	
87	0	2048	2047	2052	2041	
88	0	2043	2041	2046	2051	
89	0	2047	2055	2044	2041	
90	0	2047	2049	2053	2052	
91	0	2049	2053	2049	2039	
92	0	2049	2047	2037	2055	
93	0	2050	2045	2050	2044	
94	0	2049	2048	2054	2056	
95	0	2056	2051	2041	2042	
96	0	2049	2045	2053	2059	
97	0	2048	2051	2057	2047	
98	0	2053	2050	2044	2053	
99	0	2050	2052	2051	2051	
100	0	2050	2051	2051	2053	
101	0	2049	2048	2051	2044	
102	0	2051	2046	2051	2049	
103	0	2046	2045	2042	2046	
104	0	2048	2046	2051	2045	
105	0	2047	2046	2044	2054	
106	0	2049	2049	2041	2041	
107	0	2050	2049	2047	2050	
108	0	2049	2053	2043	2038	
109	0	2047	2045	2046	2048	
110	0	2047	2045	2049	2047	
111	0	2046	2049	2045	2042	
112	0	2052	2050	2058	2052	
113	0	2054	2048	2054	2042	
114	0	2050	2052	2052	2056	
115	0	2051	2045	2047	2043	
116	0	2051	2049	2052	2054	
117	0	2053	2045	2052	2040	
118	0	2054	2051	2041	2059	
119	0	2055	2050	2050	2046	
120	0	2051	2055	2050	2058	
121	0	2049	2048	2041	2045	
122	0	2051	2052	2049	2054	
123	0	2050	2047	2047	2041	
124	0	2050	2051	2051	2043	
125	0	2046	2050	2040	2054	
126	0	2049	2046	2049	2036	
127	0	2047	2051	2044	2045	
128	0	2047	2046	2044	2053	
129	0	2048	2048	2052	2042	
130	0	2049	2042	2045	2053	
131	0	2052	2054	2042	2038	
132	0	2050	2047	2052	2051	
133	0	2054	2052	2050	2045	
134	0	2049	2050	2049	2058	
135	0	2051	2054	2052	2043	
136	0	2049	2050	2050	2053	
137	0	2054	2053	2056	2048	
138	0	2052	2046	2038	2045	
139	0	2048	2053	2049	2057	
140	0	2048	2044	2052	2041	
141	0	2048	2051	2041	2053	
142	0	2047	2043	2053	2044	
143	0	2043	2055	2049	2048	
144	0	2045	2047	2039	2051	
145	0	2048	2049	2050	2037	
146	0	2051	2046	2046	2054	
147	0	2050	2050	2045	2042	
148	0	2049	2049	2042	2043	
149	0	2049	2045	2053	2054	
150	0	2048	2055	2045	2038	
151	0	2051	2049	2045	2053	
152	0	2051	2052	2048	2042	
153	0	2052	2046	2048	2052	
154	0	2051	2050	2053	2043	
155	0	2052	2044	2043	2048	
156	0	2047	2053	2052	2046	
157	0	2047	2048	2054	2053	
158	0	2051	2051	2045	2051	
159	0	2052	2046	2056	2049	
160	0	2052	2053	2056	2054	
161	0	2054	2048	2043	2042	
162	0	2049	2055	2053	2054	
163	0	2049	2048	2045	2041	
164	0	2046	2053	2048	2050	
165	0	2048	2043	2048	2051	
166	0	2046	2053	2051	2039	
167	0	2045	2045	2050	2052	
168	0	2050	2045	2039	2036	
169	0	2047	2038	2052	2048	
170	0	2049	2045	2050	2040	
171	0	2049	2045	2038	2052	
172	0	2051	2049	2051	2040	
173	0	2047	2046	2054	2056	
174	0	2050	2048	2050	2050	
175	0	2052	2050	2052	2052	
176	0	2054	2051	2048	2055	
177	0	2056	2052	2047	2045	
178	0	2054	2048	2048	2058	
179	0	2050	2053	2049	2046	
180	0	2051	2049	2051	2053	
181	0	2046	2054	2042	2049	
182	0	2050	2042	2047	2048	
183	0	2050	2052	2050	2052	
184	0	2048	2046	2039	2038	
185	0	2042	2046	2045	2045	
186	0	2046	2048	2043	2047	
187	0	2048	2048	2042	2035	
188	0	2045	2049	2047	2053	
189	0	2047	2046	2048	2033	
190	0	2054	2050	2052	2048	
191	0	2049	2048	2043	2047	
192	0	2054	2049	2048	2053	
193	0	2053	2049	2057	2052	
194	0	2051	2054	2046	2043	
195	0	2053	2046	2056	2054	
196	0	2051	2050	2053	2056	
197	0	2052	2051	2051	2051	
198	0	2052	2053	2052	2045	
199	0	2050	2055	2052	2045	
200	0	2051	2054	2048	2042	
201	0	2047	2049	2048	2040	
202	0	2050	2045	2051	2044	
203	0	2049	2045	2048	2045	
204	0	2046	2047	2045	2050	
205	0	2042	2046	2046	2057	
206	0	2041	2046	2046	2054	
207	0	2048	2048	2047	2045	
208	0	2047	2054	2049	2037	
209	0	2047	2053	2047	2036	
210	0	2051	2046	2048	2036	
211	0	2053	2049	2048	2041	
212	0	2051	2044	2048	2043	
213	0	2053	2052	2050	2049	
214	0	2054	2052	2051	2049	
215	0	2049	2048	2048	2055	
216	0	2051	2048	2048	2056	
217	0	2053	2051	2052	2055	
218	0	2053	2051	2052	2056	
219	0	2049	2054	2050	2051	
220	0	2049	2051	2042	2040	
221	0	2051	2048	2047	2042	
222	0	2051	2048	2049	2043	
223	0	2049	2044	2050	2048	
224	0	2050	2047	2056	2051	
225	0	2047	2049	2053	2053	
226	0	2047	2045	2039	2043	
227	0	2047	2047	2048	2039	
228	0	2052	2044	2047	2048	
229	0	2047	2049	2042	2043	
230	0	2047	2048	2050	2052	
231	0	2050	2049	2051	2037	
232	0	2050	2053	2056	2051	
233	0	2049	2049	2042	2044	
234	0	2047	2054	2054	2053	
235	0	2047	2046	2046	2050	
236	0	2049	2053	2043	2046	
237	0	2051	2049	2050	2060	
238	0	2051	2057	2044	2046	
239	0	2050	2045	2043	2060	
240	0	2048	2054	2050	2043	
241	0	2050	2047	2058	2055	
242	0	2051	2051	2039	2039	
243	0	2049	2044	2053	2054	
244	0	2045	2052	2051	2040	
245	0	2046	2044	2037	2045	
246	0	2048	2053	2048	2040	
247	0	2046	2045	2053	2037	
248	0	2046	2050	2038	2049	
249	0	2045	2045	2052	2038	
250	0	2051	2053	2044	2058	
251	0	2050	2048	2044	2041	
252	0	2051	2050	2051	2056	
253	0	2052	2046	2053	2046	
254	0	2051	2054	2044	2052	
255	0	2050	2054	2050	2053	
256	0	2051	2052	2053	2044	
257	0	2052	2049	2051	2055	
258	0	2051	2046	2056	2050	
259	0	2048	2049	2049	2054	
260	0	2050	2045	2049	2043	
261	0	2051	2041	2048	2055	
262	0	2049	2051	2050	2042	
263	0	2047	2050	2046	2053	
264	0	2052	2054	2041	2044	
265	0	2054	2047	2049	2047	
266	0	2049	2048	2050	2049	
267	0	2046	2046	2040	2039	
268	0	2043	2050	2048	2045	
269	0	2048	2049	2050	2039	
270	0	2048	2046	2037	2048	
271	0	2048	2048	2058	2043	
272	0	2054	2050	2054	2051	
273	0	2056	2047	2039	2050	
274	0	2049	2042	2050	2052	
275	0	2052	2053	2053	2046	
276	0	2051	2046	2053	2050	
277	0	2051	2057	2050	2044	
278	0	2051	2047	2059	2055	
279	0	2052	2052	2045	2047	
280	0	2051	2051	2049	2053	
281	0	2050	2051	2050	2050	
282	0	2050	2046	2043	2046	
283	0	2046	2042	2050	2044	
284	0	2047	2049	2050	2050	
285	0	2049	2046	2048	2036	
286	0	2049	2052	2050	2047	
287	0	2047	2048	2042	2039	
288	0	2047	2048	2044	2051	
289	0	2050	2056	2042	2052	
290	0	2047	2045	2049	2046	
291	0	2045	2046	2049	2050	
292	0	2049	2048	2044	2050	
293	0	2050	2045	2051	2054	
294	0	2053	2048	2045	2044	
295	0	2050	2050	2052	2056	
296	0	2050	2054	2051	2038	
297	0	2052	2055	2049	2057	
298	0	2051	2048	2047	2044	
299	0	2051	2054	2041	2054	
300	0	2050	2041	2050	2045	
301	0	2050	2046	2050	2052	
302	0	2048	2045	2038	2044	
303	0	2047	2049	2047	2056	
304	0	2049	2052	2051	2039	
305	0	2047	2046	2041	2049	
306	0	2049	2049	2051	2034	
307	0	2044	2043	2053	2048	
308	0	2045	2053	2038	2039	
309	0	2052	2047	2053	2050	
310	0	2049	2054	2057	2043	
311	0	2051	2048	2041	2050	
312	0	2051	2050	2056	2051	
313	0	2052	2044	2055	2045	
314	0	2050	2051	2042	2061	
315	0	2054	2048	2052	2048	
316	0	2051	2050	2051	2058	
317	0	2052	2051	2051	2046	
318	0	2051	2048	2042	2039	
319	0	2053	2052	2040	2044	
320	0	2051	2048	2049	2056	
321	0	2049	2050	2048	2059	
322	0	2049	2046	2050	2050	
323	0	2044	2044	2047	2043	
324	0	2045	2049	2046	2042	
325	0	2046	2052	2046	2045	
326	0	2049	2050	2048	2044	
327	0	2046	2045	2053	2050	
328	0	2046	2050	2051	2042	
329	0	2047	2048	2045	2034	
330	0	2046	2050	2043	2043	
331	0	2044	2056	2042	2053	
332	0	2051	2044	2040	2057	
333	0	2050	2049	2050	2054	
334	0	2055	2053	2045	2049	
335	0	2052	2048	2046	2054	
336	0	2051	2052	2050	2045	
337	0	2046	2048	2055	2046	
338	0	2051	2040	2044	2050	
339	0	2055	2049	2051	2047	
340	0	2052	2045	2054	2053	
341	0	2052	2052	2042	2040	
342	0	2050	2048	2050	2052	
343	0	2046	2049	2051	2036	
344	0	2048	2047	2039	2050	
345	0	2046	2044	2054	2039	
346	0	2047	2048	2051	2049	
347	0	2046	2042	2035	2036	
348	0	2051	2048	2047	2049	
349	0	2045	2042	2052	2042	
350	0	2046	2052	2040	2047	
351	0	2049	2050	2050	2043	
352	0	2052	2053	2052	2055	
353	0	2050	2050	2052	2042	
354	0	2052	2048	2048	2058	
355	0	2054	2053	2047	2044	
356	0	2053	2050	2052	2056	
357	0	2051	2049	2048	2042	
358	0	2052	2046	2046	2058	
359	0	2050	2052	2053	2045	
360	0	2051	2050	2051	2058	
361	0	2049	2043	2039	2041	
362	0	2048	2049	2050	2050	
363	0	2051	2047	2050	2038	
364	0	2045	2053	2038	2046	
365	0	2048	2044	2050	2033	
366	0	2046	2050	2045	2053	
367	0	2048	2046	2036	2032	
368	0	2047	2048	2048	2049	
369	0	2046	2048	2048	2036	
370	0	2045	2043	2037	2051	
371	0	2050	2046	2049	2041	
372	0	2054	2048	2051	2059	
373	0	2054	2053	2047	2047	
374	0	2052	2052	2054	2063	
375	0	2051	2058	2053	2044	
376	0	2050	2051	2049	2055	
377	0	2050	2051	2053	2040	
378	0	2052	2046	2054	2056	
379	0	2054	2057	2054	2047	
380	0	2049	2050	2048	2052	
381	0	2050	2054	2046	2043	
382	0	2049	2050	2050	2055	
383	0	2048	2047	2044	2046	
384	0	2046	2048	2046	2045	
385	0	2049	2049	2046	2043	
386	0	2046	2049	2045	2042	
387	0	2045	2047	2038	2043	
388	0	2049	2053	2048	2050	
389	0	2045	2045	2048	2046	
390	0	2046	2048	2038	2045	
391	0	2047	2051	2052	2040	
392	0	2051	2044	2057	2052	
393	0	2054	2050	2050	2048	
394	0	2057	2046	2051	2047	
395	0	2052	2053	2048	2044	
396	0	2050	2045	2055	2052	
397	0	2048	2054	2049	2042	
398	0	2053	2051	2039	2052	
399	0	2047	2046	2053	2042	
400	0	2050	2051	2053	2057	
401	0	2046	2047	2050	2043	
402	0	2047	2052	2045	2057	
403	0	2049	2043	2044	2043	
404	0	2050	2049	2044	2055	
405	0	2046	2050	2041	2039	
406	0	2042	2047	2043	2049	
407	0	2046	2047	2050	2034	
408	0	2046	2049	2047	2046	
409	0	2049	2049	2053	2045	
410	0	2051	2046	2040	2044	
411	0	2047	2046	2051	2052	
412	0	2053	2043	2053	2039	
413	0	2051	2053	2044	2057	
414	0	2052	2047	2052	2043	
415	0	2056	2050	2054	2041	
416	0	2051	2049	2054	2054	
417	0	2052	2052	2042	2038	
418	0	2049	2046	2053	2056	
419	0	2051	2054	2053	2043	
420	0	2050	2044	2041	2052	
421	0	2052	2052	2049	2049	
422	0	2049	2050	2050	2050	
423	0	2045	2053	2038	2053	
424	0	2047	2042	2053	2043	
425	0	2045	2050	2046	2047	
426	0	2050	2048	2046	2038	
427	0	2050	2051	2048	2045	
428	0	2047	2045	2049	2050	
429	0	2049	2052	2048	2044	
430	0	2046	2047	2052	2050	
431	0	2048	2054	2052	2042	
432	0	2050	2050	2051	2044	
433	0	2053	2054	2053	2040	
434	0	2051	2053	2057	2045	
435	0	2049	2056	2054	2043	
436	0	2052	2051	2049	2041	
437	0	2049	2049	2042	2044	
438	0	2053	2051	2039	2046	
439	0	2054	2048	2039	2046	
440	0	2048	2042	2047	2052	
441	0	2049	2042	2052	2052	
442	0	2047	2043	2056	2055	
443	0	2045	2048	2048	2056	
444	0	2044	2046	2048	2055	
445	0	2046	2044	2047	2054	
446	0	2047	2042	2047	2048	
447	0	2047	2048	2047	2034	
448	0	2050	2046	2043	2047	
449	0	2048	2051	2050	2039	
450	0	2049	2046	2057	2046	
451	0	2049	2051	2042	2040	
452	0	2053	2048	2048	2050	
453	0	2050	2052	2048	2057	
454	0	2051	2048	2041	2048	
455	0	2049	2045	2051	2056	
456	0	2049	2050	2055	2044	
457	0	2054	2048	2042	2053	
458	0	2050	2052	2050	2041	
459	0	2053	2044	2049	2059	
460	0	2050	2056	2041	2040	
461	0	2051	2046	2054	2058	
462	0	2051	2053	2045	2042	
463	0	2047	2047	2046	2055	
464	0	2048	2050	2049	2040	
465	0	2043	2047	2043	2050	
466	0	2046	2045	2051	2041	
467	0	2046	2046	2038	2050	
468	0	2048	2044	2048	2044	
469	0	2049	2050	2047	2043	
470	0	2049	2045	2041	2048	
471	0	2052	2052	2052	2042	
472	0	2051	2050	2055	2049	
473	0	2051	2056	2044	2046	
474	0	2053	2049	2053	2056	
475	0	2054	2056	2050	2043	
476	0	2051	2048	2046	2054	
477	0	2051	2052	2051	2045	
478	0	2051	2046	2049	2059	
479	0	2053	2053	2054	2046	
480	0	2049	2046	2042	2057	
481	0	2048	2048	2053	2046	
482	0	2050	2043	2048	2053	
483	0	2048	2045	2051	2053	
484	0	2046	2043	2036	2040	
485	0	2044	2050	2046	2050	
486	0	2048	2048	2045	2032	
487	0	2045	2045	2043	2047	
488	0	2046	2044	2045	2036	
489	0	2046	2046	2048	2050	
490	0	2047	2048	2054	2046	
491	0	2047	2044	2041	2043	
492	0	2052	2052	2053	2053	
493	0	2052	2047	2048	2041	
494	0	2050	2054	2043	2055	
495	0	2052	2049	2052	2044	
496	0	2050	2056	2048	2050	
497	0	2055	2049	2049	2055	
498	0	2056	2052	2050	2045	
499	0	2048	2052	2051	2059	
500	0	2050	2047	2035	2044	
501	0	2045	2053	2050	2058	
502	0	2048	2050	2053	2044	
503	0	2051	2046	2045	2044	
504	0	2048	2047	2048	2054	
505	0	2046	2049	2048	2030	
506	0	2045	2045	2053	2052	
507	0	2046	2048	2040	2038	
508	0	2046	2046	2051	2048	
509	0	2050	2049	2048	2048	
510	0	2051	2047	2050	2042	
511	0	2048	2054	2046	2055	
512	0	2050	2044	2051	2044	
513	0	2052	2051	2051	2058	
514	0	2054	2047	2039	2038	
515	0	2050	2051	2049	2054	
516	0	2052	2045	2046	2045	
517	0	2053	2052	2046	2054	
518	0	2048	2046	2054	2041	
519	0	2052	2049	2048	2049	
520	0	2051	2051	2041	2045	
521	0	2048	2052	2052	2050	
522	0	2050	2049	2045	2046	
523	0	2050	2044	2046	2042	
524	0	2047	2042	2048	2055	
525	0	2050	2046	2047	2040	
526	0	2051	2047	2038	2048	
527	0	2047	2050	2048	2039	
528	0	2048	2047	2048	2052	
529	0	2045	2053	2042	2042	
530	0	2047	2046	2047	2055	
531	0	2050	2051	2050	2042	
532	0	2050	2048	2044	2056	
533	0	2051	2052	2054	2041	
534	0	2050	2048	2053	2054	
535	0	2054	2048	2044	2038	
536	0	2051	2052	2050	2054	
537	0	2051	2049	2054	2045	
538	0	2050	2050	2039	2059	
539	0	2048	2049	2046	2044	
540	0	2052	2055	2051	2053	
541	0	2051	2045	2050	2042	
542	0	2047	2052	2050	2057	
543	0	2048	2044	2037	2041	
544	0	2050	2050	2052	2052	
545	0	2046	2044	2052	2044	
546	0	2045	2040	2042	2052	
547	0	2045	2048	2047	2048	
548	0	2045	2044	2047	2041	
549	0	2049	2050	2051	2050	
550	0	2053	2044	2042	2044	
551	0	2053	2048	2041	2050	
552	0	2050	2055	2055	2045	
553	0	2049	2046	2057	2054	
554	0	2054	2058	2046	2046	
555	0	2052	2048	2054	2045	
556	0	2051	2053	2055	2053	
557	0	2051	2047	2046	2048	
558	0	2053	2053	2054	2055	
559	0	2051	2046	2050	2046	
560	0	2050	2048	2050	2051	
561	0	2049	2046	2046	2042	
562	0	2049	2049	2050	2054	
563	0	2051	2047	2044	2041	
564	0	2047	2054	2045	2051	
565	0	2045	2050	2043	2038	
566	0	2047	2045	2038	2053	
567	0	2047	2045	2048	2039	
568	0	2048	2045	2055	2049	
569	0	2050	2050	2043	2037	
570	0	2047	2049	2056	2055	
571	0	2051	2055	2052	2046	
572	0	2050	2045	2046	2053	
573	0	2051	2047	2042	2055	
574	0	2050	2045	2041	2053	
575	0	2052	2049	2044	2052	
576	0	2048	2050	2040	2056	
577	0	2052	2054	2045	2057	
578	0	2050	2053	2046	2056	
579	0	2049	2057	2050	2055	
580	0	2049	2054	2053	2050	
581	0	2050	2052	2053	2048	
582	0	2051	2046	2048	2043	
583	0	2051	2046	2044	2041	
584	0	2047	2042	2046	2039	
585	0	2044	2044	2050	2039	
586	0	2044	2045	2049	2041	
587	0	2045	2044	2051	2038	
588	0	2048	2050	2048	2050	
589	0	2050	2044	2039	2036	
590	0	2049	2052	2054	2048	
591	0	2053	2044	2048	2041	
592	0	2050	2052	2048	2051	
593	0	2053	2049	2050	2046	
594	0	2052	2056	2053	2059	
595	0	2051	2046	2056	2044	
596	0	2051	2051	2042	2057	
597	0	2050	2051	2052	2042	
598	0	2051	2047	2054	2054	
599	0	2050	2047	2038	2042	
600	0	2052	2043	2052	2046	
601	0	2053	2049	2047	2039	
602	0	2050	2048	2048	2042	
603	0	2045	2048	2048	2053	
604	0	2043	2053	2046	2037	
605	0	2045	2045	2050	2041	
606	0	2047	2049	2050	2044	
607	0	2047	2052	2045	2048	
608	0	2048	2055	2037	2052	
609	0	2047	2046	2042	2046	
610	0	2048	2045	2041	2037	
611	0	2050	2048	2053	2042	
612	0	2054	2050	2052	2050	
613	0	2054	2058	2054	2052	
614	0	2052	2054	2054	2053	
615	0	2052	2048	2055	2056	
616	0	2050	2045	2054	2051	
617	0	2052	2049	2055	2045	
618	0	2056	2050	2053	2048	
619	0	2052	2048	2056	2045	
620	0	2053	2051	2059	2049	
621	0	2047	2053	2060	2051	
622	0	2050	2049	2055	2045	
623	0	2050	2043	2051	2053	
624	0	2045	2044	2048	2056	
625	0	2043	2045	2050	2054	
626	0	2050	2046	2055	2054	
627	0	2049	2051	2055	2047	
628	0	2050	2048	2053	2049	
629	0	2047	2047	2055	2043	
630	0	2051	2045	2051	2044	
631	0	2050	2046	2045	2045	
632	0	2049	2044	2043	2045	
633	0	2054	2054	2044	2054	
634	0	2053	2047	2054	2055	
635	0	2052	2054	2051	2046	
636	0	2053	2051	2041	2058	
637	0	2053	2051	2052	2041	
638	0	2052	2046	2043	2044	
639	0	2049	2050	2042	2051	
640	0	2049	2043	2042	2041	
641	0	2045	2052	2036	2047	
642	0	2045	2050	2035	2028	
643	0	2043	2051	2029	2039	
644	0	2042	2048	2036	2028	
645	0	2041	2050	2037	2039	
646	0	2043	2044	2027	2038	
647	0	2040	2049	2037	2035	
648	0	2041	2045	2040	2044	
649	0	2047	2048	2032	2034	
650	0	2049	2043	2045	2051	
651	0	2047	2048	2043	2035	
652	0	2050	2049	2035	2053	
653	0	2047	2055	2048	2039	
654	0	2051	2048	2052	2056	
655	0	2054	2052	2041	2043	
656	0	2051	2047	2051	2056	
657	0	2054	2055	2058	2038	
658	0	2056	2044	2048	2055	
659	0	2052	2056	2057	2048	
660	0	2052	2044	2057	2057	
661	0	2048	2054	2046	2045	
662	0	2048	2047	2056	2058	
663	0	2052	2054	2054	2051	
664	0	2050	2043	2044	2052	
665	0	2047	2050	2054	2045	
666	0	2043	2044	2050	2046	
667	0	2044	2049	2042	2051	
668	0	2049	2044	2055	2045	
669	0	2050	2051	2052	2055	
670	0	2048	2045	2042	2046	
671	0	2048	2051	2053	2056	
672	0	2053	2046	2057	2041	
673	0	2054	2050	2048	2057	
674	0	2053	2045	2054	2043	
675	0	2051	2054	2054	2058	
676	0	2054	2046	2053	2043	
677	0	2053	2055	2051	2061	
678	0	2053	2051	2051	2045	
679	0	2053	2054	2045	2054	
680	0	2049	2046	2056	2042	
681	0	2046	2051	2051	2051	
682	0	2050	2051	2039	2048	
683	0	2050	2054	2045	2043	
684	0	2047	2046	2049	2050	
685	0	2049	2054	2054	2035	
686	0	2049	2042	2045	2053	
687	0	2046	2052	2050	2037	
688	0	2049	2044	2053	2051	
689	0	2052	2050	2047	2038	
690	0	2046	2046	2050	2054	
691	0	2045	2051	2051	2038	
692	0	2050	2046	2040	2051	
693	0	2049	2054	2048	2040	
694	0	2051	2044	2049	2056	
695	0	2054	2053	2054	2052	
696	0	2053	2048	2043	2046	
697	0	2054	2053	2058	2058	
698	0	2048	2046	2057	2045	
699	0	2048	2055	2042	2058	
700	0	2046	2048	2045	2044	
701	0	2050	2054	2051	2054	
702	0	2047	2046	2046	2036	
703	0	2051	2051	2047	2046	
704	0	2048	2047	2038	2041	
705	0	2048	2050	2044	2046	
706	0	2046	2044	2044	2045	
707	0	2045	2050	2048	2041	
708	0	2047	2047	2042	2056	
709	0	2049	2045	2052	2038	
710	0	2050	2044	2044	2055	
711	0	2051	2050	2048	2042	
712	0	2050	2049	2053	2052	
713	0	2051	2049	2053	2044	
714	0	2053	2045	2054	2054	
715	0	2052	2052	2044	2046	
716	0	2054	2054	2047	2051	
717	0	2050	2046	2050	2051	
718	0	2053	2049	2052	2049	
719	0	2050	2049	2044	2051	
720	0	2046	2047	2049	2048	
721	0	2046	2053	2054	2046	
722	0	2046	2045	2040	2050	
723	0	2047	2048	2049	2047	
724	0	2050	2041	2053	2042	
725	0	2046	2047	2038	2052	
726	0	2046	2042	2048	2037	
727	0	2046	2051	2045	2048	
728	0	2047	2044	2050	2045	
729	0	2046	2048	2041	2048	
730	0	2051	2046	2050	2049	
731	0	2048	2048	2045	2042	
732	0	2049	2053	2055	2056	
733	0	2050	2048	2042	2040	
734	0	2049	2053	2050	2054	
735	0	2052	2046	2052	2046	
736	0	2052	2051	2043	2053	
737	0	2048	2048	2051	2055	
738	0	2048	2052	2049	2048	
739	0	2047	2048	2048	2058	
740	0	2050	2048	2039	2039	
741	0	2049	2054	2048	2052	
742	0	2048	2048	2050	2045	
743	0	2051	2051	2043	2046	
744	0	2052	2043	2047	2044	
745	0	2049	2049	2049	2042	
746	0	2051	2045	2052	2043	
747	0	2050	2047	2043	2041	
748	0	2049	2044	2049	2047	
749	0	2048	2048	2052	2042	
750	0	2046	2048	2041	2052	
751	0	2051	2053	2053	2039	
752	0	2052	2047	2049	2055	
753	0	2052	2052	2049	2041	
754	0	2048	2049	2051	2053	
755	0	2048	2053	2050	2048	
756	0	2048	2050	2045	2059	
757	0	2049	2051	2050	2043	
758	0	2048	2050	2045	2052	
759	0	2049	2049	2044	2041	
760	0	2047	2050	2052	2053	
761	0	2047	2045	2046	2042	
762	0	2049	2052	2052	2056	
763	0	2048	2044	2046	2047	
764	0	2052	2047	2050	2050	
765	0	2045	2043	2053	2045	
766	0	2049	2049	2037	2046	
767	0	2050	2047	2052	2043	
768	0	2049	2050	2048	2048	
769	0	2048	2046	2043	2036	
770	0	2050	2055	2048	2050	
771	0	2051	2049	2051	2037	
772	0	2053	2051	2051	2056	
773	0	2052	2054	2046	2046	
774	0	2051	2046	2046	2056	
775	0	2050	2050	2054	2045	
776	0	2048	2046	2048	2053	
777	0	2050	2054	2044	2054	
778	0	2048	2046	2051	2046	
779	0	2052	2053	2054	2055	
780	0	2049	2047	2037	2042	
781	0	2047	2047	2052	2055	
782	0	2048	2050	2054	2039	
783	0	2048	2046	2036	2053	
784	0	2050	2046	2049	2034	
785	0	2050	2045	2051	2052	
786	0	2049	2053	2040	2038	
787	0	2047	2042	2048	2052	
788	0	2046	2049	2046	2037	
789	0	2045	2044	2036	2050	
790	0	2046	2055	2046	2040	
791	0	2048	2050	2052	2053	
792	0	2048	2055	2041	2040	
793	0	2053	2050	2054	2052	
794	0	2053	2048	2051	2042	
795	0	2054	2044	2038	2051	
796	0	2049	2053	2049	2048	
797	0	2050	2047	2055	2053	
798	0	2047	2054	2042	2049	
799	0	2049	2046	2053	2052	
800	0	2050	2053	2051	2048	
801	0	2050	2047	2043	2044	
802	0	2047	2049	2049	2049	
803	0	2048	2043	2051	2050	
804	0	2052	2048	2041	2041	
805	0	2051	2050	2050	2044	
806	0	2048	2046	2053	2039	
807	0	2045	2050	2040	2045	
808	0	2049	2049	2051	2038	
809	0	2050	2049	2052	2048	
810	0	2049	2048	2042	2039	
811	0	2048	2050	2051	2051	
812	0	2052	2047	2055	2047	
813	0	2054	2051	2045	2046	
814	0	2049	2052	2051	2060	
815	0	2053	2050	2046	2047	
816	0	2048	2050	2042	2057	
817	0	2049	2049	2050	2047	
818	0	2047	2054	2048	2058	
819	0	2052	2050	2055	2041	
820	0	2048	2051	2037	2054	
821	0	2050	2045	2051	2045	
822	0	2047	2048	2050	2048	
823	0	2048	2045	2038	2044	
824	0	2050	2051	2051	2046	
825	0	2046	2049	2050	2038	
826	0	2045	2052	2042	2043	
827	0	2046	2048	2050	2041	
828	0	2046	2048	2048	2036	
829	0	2049	2048	2049	2050	
830	0	2053	2045	2047	2039	
831	0	2050	2052	2050	2058	
832	0	2051	2045	2056	2047	
833	0	2051	2055	2042	2058	
834	0	2052	2046	2052	2043	
835	0	2048	2050	2047	2060	
836	0	2048	2045	2045	2046	
837	0	2048	2047	2048	2054	
838	0	2050	2045	2046	2040	
839	0	2048	2051	2052	2052	
840	0	2047	2043	2043	2042	
841	0	2046	2054	2050	2057	
842	0	2048	2047	2051	2039	
843	0	2051	2051	2042	2053	
844	0	2046	2047	2051	2039	
845	0	2047	2048	2052	2048	
846	0	2050	2045	2043	2038	
847	0	2051	2047	2044	2041	
848	0	2050	2048	2049	2053	
849	0	2050	2052	2047	2040	
850	0	2052	2049	2047	2053	
851	0	2049	2053	2052	2042	
852	0	2048	2046	2055	2056	
853	0	2050	2055	2057	2038	
854	0	2050	2052	2041	2051	
855	0	2053	2053	2052	2043	
856	0	2054	2046	2051	2054	
857	0	2055	2054	2051	2047	
858	0	2049	2049	2051	2052	
859	0	2047	2053	2045	2049	
860	0	2052	2053	2048	2051	
861	0	2051	2047	2050	2051	
862	0	2049	2048	2043	2045	
863	0	2049	2048	2044	2054	
864	0	2048	2048	2046	2040	
865	0	2046	2046	2043	2054	
866	0	2047	2043	2042	2040	
867	0	2050	2044	2050	2051	
868	0	2051	2050	2048	2035	
869	0	2048	2044	2053	2051	
870	0	2048	2047	2042	2040	
871	0	2051	2046	2051	2051	
872	0	2052	2050	2054	2043	
873	0	2050	2048	2051	2058	
874	0	2052	2056	2050	2042	
875	0	2052	2047	2053	2054	
876	0	2049	2054	2039	2048	
877	0	2051	2052	2054	2049	
878	0	2051	2051	2046	2060	
879	0	2052	2046	2054	2047	
880	0	2048	2048	2039	2054	
881	0	2048	2047	2050	2054	
882	0	2046	2043	2051	2045	
883	0	2049	2048	2043	2053	
884	0	2046	2051	2050	2046	
885	0	2049	2043	2047	2048	
886	0	2047	2049	2038	2036	
887	0	2047	2045	2047	2052	
888	0	2048	2051	2046	2037	
889	0	2049	2046	2049	2047	
890	0	2051	2048	2054	2041	
891	0	2050	2045	2051	2045	
892	0	2052	2052	2052	2050	
893	0	2048	2043	2044	2042	
894	0	2052	2053	2053	2059	
895	0	2053	2048	2057	2045	
896	0	2050	2050	2044	2051	
897	0	2052	2049	2050	2053	
898	0	2050	2050	2050	2042	
899	0	2050	2055	2050	2050	
900	0	2046	2047	2039	2054	
901	0	2050	2047	2048	2043	
902	0	2046	2045	2046	2056	
903	0	2048	2047	2049	2040	
904	0	2048	2046	2039	2051	
905	0	2048	2050	2047	2037	
906	0	2047	2046	2050	2047	
907	0	2048	2048	2040	2042	
908	0	2048	2044	2052	2045	
909	0	2047	2048	2051	2040	
910	0	2051	2046	2038	2052	
911	0	2052	2054	2049	2040	
912	0	2050	2046	2051	2053	
913	0	2051	2054	2047	2044	
914	0	2051	2047	2053	2045	
915	0	2049	2052	2052	2060	
916	0	2050	2042	2056	2042	
917	0	2051	2051	2040	2058	
918	0	2048	2045	2054	2043	
919	0	2049	2055	2054	2056	
920	0	2049	2049	2039	2044	
921	0	2048	2054	2048	2053	
922	0	2051	2047	2045	2052	
923	0	2050	2046	2052	2042	
924	0	2049	2044	2036	2053	
925	0	2046	2045	2049	2044	
926	0	2052	2044	2048	2044	
927	0	2046	2044	2036	2051	
928	0	2047	2051	2050	2040	
929	0	2046	2044	2052	2050	
930	0	2050	2051	2055	2036	
931	0	2052	2052	2041	2053	
932	0	2050	2054	2051	2043	
933	0	2047	2049	2053	2055	
934	0	2048	2048	2044	2041	
935	0	2053	2052	2050	2053	
936	0	2050	2045	2054	2049	
937	0	2051	2054	2042	2052	
938	0	2054	2047	2047	2045	
939	0	2051	2054	2046	2039	
940	0	2050	2048	2049	2050	
941	0	2050	2051	2046	2043	
942	0	2046	2049	2036	2056	
943	0	2047	2044	2047	2040	
944	0	2049	2048	2052	2058	
945	0	2045	2043	2039	2041	
946	0	2044	2053	2050	2049	
947	0	2048	2044	2047	2039	
948	0	2046	2050	2043	2047	
949	0	2050	2042	2050	2040	
950	0	2047	2050	2045	2044	
951	0	2051	2047	2050	2049	
952	0	2046	2054	2053	2049	
953	0	2052	2050	2050	2051	
954	0	2054	2056	2052	2048	
955	0	2049	2053	2056	2044	
956	0	2051	2052	2049	2054	
957	0	2054	2050	2046	2049	
958	0	2050	2046	2047	2058	
959	0	2052	2047	2048	2045	
960	0	2051	2044	2052	2053	
961	0	2048	2046	2038	2049	
962	0	2046	2043	2051	2048	
963	0	2046	2053	2052	2049	
964	0	2050	2045	2041	2042	
965	0	2048	2051	2052	2050	
966	0	2049	2041	2050	2035	
967	0	2049	2050	2050	2049	
968	0	2050	2045	2042	2035	
969	0	2048	2050	2054	2050	
970	0	2046	2045	2053	2046	
971	0	2047	2049	2041	2041	
972	0	2051	2043	2052	2054	
973	0	2049	2050	2050	2042	
974	0	2051	2048	2041	2059	
975	0	2053	2052	2054	2045	
976	0	2050	2044	2048	2057	
977	0	2052	2053	2038	2043	
978	0	2054	2047	2050	2049	
979	0	2054	2055	2053	2047	
980	0	2049	2053	2045	2045	
981	0	2047	2051	2054	2047	
982	0	2046	2045	2047	2051	
983	0	2048	2050	2038	2045	
984	0	2047	2049	2044	2049	
985	0	2042	2046	2046	2039	
986	0	2046	2048	2047	2047	
987	0	2044	2045	2048	2044	
988	0	2047	2051	2048	2050	
989	0	2052	2045	2049	2042	
990	0	2049	2055	2050	2047	
991	0	2050	2047	2052	2046	
992	0	2052	2055	2053	2054	
993	0	2054	2050	2050	2047	
994	0	2054	2046	2051	2048	
995	0	2058	2053	2041	2049	
996	0	2050	2048	2055	2041	
997	0	2052	2052	2050	2053	
998	0	2046	2049	2045	2042	
999	0	2048	2047	2046	2053	
1000	0	2052	2051	2047	2053	
1001	0	2051	2048	2052	2041	
1002	0	2046	2047	2048	2053	
1003	0	2048	2050	2046	2040	
1004	0	2046	2044	2046	2058	
1005	0	2046	2054	2043	2036	
1006	0	2048	2045	2047	2050	
1007	0	2049	2052	2047	2039	
1008	0	2047	2048	2046	2050	
1009	0	2049	2051	2049	2042	
1010	0	2047	2049	2049	2052	
1011	0	2051	2045	2053	2044	
1012	0	2051	2052	2053	2052	
1013	0	2049	2048	2043	2055	
1014	0	2051	2056	2054	2053	
1015	0	2053	2050	2052	2045	
1016	0	2050	2054	2041	2055	
1017	0	2049	2049	2053	2046	
1018	0	2051	2054	2047	2055	
1019	0	2048	2050	2040	2044	
1020	0	2050	2052	2052	2050	
1021	0	2050	2047	2050	2046	
1022	0	2049	2045	2034	2049	
1023	0	2048	2049	2049	2043	
1024	0	2048	2049	2047	2047	
1025	0	2049	2043	2037	2041	
1026	0	2050	2045	2050	2043	
1027	0	2047	2044	2048	2044	
1028	0	2046	2039	2042	2049	
1029	0	2048	2048	2054	2041	
1030	0	2048	2046	2048	2049	
1031	0	2051	2052	2050	2050	
1032	0	2054	2050	2051	2045	
1033	0	2052	2053	2049	2049	
1034	0	2052	2051	2050	2055	
1035	0	2050	2051	2043	2046	
1036	0	2048	2043	2053	2058	
1037	0	2051	2052	2047	2046	
1038	0	2050	2046	2049	2058	
1039	0	2053	2051	2050	2042	
1040	0	2054	2045	2050	2057	
1041	0	2046	2054	2052	2043	
1042	0	2048	2049	2043	2051	
1043	0	2049	2054	2050	2036	
1044	0	2046	2044	2046	2051	
1045	0	2046	2048	2051	2041	
1046	0	2047	2046	2049	2047	
1047	0	2044	2050	2048	2039	
1048	0	2047	2051	2044	2049	
1049	0	2047	2046	2047	2037	
1050	0	2048	2050	2045	2053	
1051	0	2051	2044	2048	2044	
1052	0	2051	2050	2054	2058	
1053	0	2051	2050	2048	2043	
1054	0	2054	2053	2056	2054	
1055	0	2052	2049	2049	2038	
1056	0	2054	2051	2052	2060	
1057	0	2054	2049	2050	2044	
1058	0	2047	2054	2046	2058	
1059	0	2048	2047	2045	2045	
1060	0	2050	2051	2049	2054	
1061	0	2052	2045	2042	2040	
1062	0	2050	2052	2049	2052	
1063	0	2047	2046	2052	2041	
1064	0	2047	2045	2040	2048	
1065	0	2048	2051	2050	2041	
1066	0	2046	2046	2051	2054	
1067	0	2048	2048	2040	2040	
1068	0	2047	2045	2051	2051	
1069	0	2048	2047	2045	2044	
1070	0	2050	2042	2045	2056	
1071	0	2054	2054	2050	2045	
1072	0	2049	2049	2052	2053	
1073	0	2050	2051	2040	2043	
1074	0	2050	2048	2055	2054	
1075	0	2051	2054	2049	2042	
1076	0	2050	2046	2051	2055	
1077	0	2047	2050	2044	2042	
1078	0	2043	2047	2050	2048	
1079	0	2047	2049	2046	2060	
1080	0	2044	2050	2051	2044	
1081	0	2046	2046	2038	2049	
1082	0	2051	2050	2051	2035	
1083	0	2044	2046	2049	2050	
1084	0	2048	2050	2042	2048	
1085	0	2049	2047	2053	2039	
1086	0	2046	2047	2041	2051	
1087	0	2048	2052	2050	2037	
1088	0	2046	2051	2050	2048	
1089	0	2048	2050	2055	2045	
1090	0	2049	2042	2045	2047	
1091	0	2049	2052	2050	2048	
1092	0	2057	2050	2046	2050	
1093	0	2052	2054	2047	2043	
1094	0	2054	2046	2053	2054	
1095	0	2051	2044	2048	2045	
1096	0	2051	2047	2047	2057	
1097	0	2050	2049	2041	2048	
1098	0	2048	2048	2051	2058	
1099	0	2049	2052	2046	2039	
1100	0	2048	2051	2046	2051	
1101	0	2049	2053	2051	2044	
1102	0	2050	2047	2047	2054	
1103	0	2051	2048	2039	2040	
1104	0	2048	2051	2050	2051	
1105	0	2046	2047	2047	2040	
1106	0	2045	2050	2046	2044	
1107	0	2048	2044	2049	2045	
1108	0	2047	2050	2049	2040	
1109	0	2050	2048	2052	2045	
1110	0	2049	2054	2049	2043	
1111	0	2046	2049	2048	2050	
1112	0	2051	2052	2040	2047	
1113	0	2053	2045	2050	2050	
1114	0	2055	2051	2048	2042	
1115	0	2053	2047	2049	2059	
1116	0	2051	2051	2050	2045	
1117	0	2048	2045	2048	2057	
1118	0	2048	2050	2048	2046	
1119	0	2048	2050	2051	2056	
1120	0	2049	2055	2049	2042	
1121	0	2048	2046	2055	2052	
1122	0	2048	2053	2042	2044	
1123	0	2050	2045	2050	2047	
1124	0	2047	2049	2047	2048	
1125	0	2050	2044	2035	2040	
1126	0	2049	2051	2049	2046	
1127	0	2044	2045	2054	2041	
1128	0	2050	2054	2038	2051	
1129	0	2050	2046	2049	2037	
1130	0	2049	2050	2055	2052	
1131	0	2047	2045	2049	2043	
1132	0	2051	2049	2045	2056	
1133	0	2052	2045	2049	2040	
1134	0	2052	2052	2052	2054	
1135	0	2054	2049	2046	2051	
1136	0	2054	2049	2045	2051	
1137	0	2052	2046	2052	2051	
1138	0	2052	2049	2053	2052	
1139	0	2051	2044	2038	2045	
1140	0	2046	2054	2051	2051	
1141	0	2044	2047	2052	2050	
1142	0	2047	2047	2042	2052	
1143	0	2048	2044	2044	2042	
1144	0	2051	2050	2045	2047	
1145	0	2048	2045	2052	2034	
1146	0	2051	2052	2045	2047	
1147	0	2047	2048	2037	2039	
1148	0	2047	2055	2050	2052	
1149	0	2049	2042	2047	2051	
1150	0	2050	2044	2044	2047	
1151	0	2051	2049	2048	2047	
1152	0	2049	2052	2050	2043	
1153	0	2052	2046	2047	2046	
1154	0	2052	2050	2048	2040	
1155	0	2049	2049	2048	2044	
1156	0	2053	2052	2052	2040	
1157	0	2054	2053	2055	2042	
1158	0	2051	2050	2050	2046	
1159	0	2048	2051	2052	2043	
1160	0	2047	2048	2051	2044	
1161	0	2045	2048	2046	2039	
1162	0	2047	2052	2047	2039	
1163	0	2048	2053	2047	2039	
1164	0	2048	2051	2049	2038	
1165	0	2049	2048	2047	2037	
1166	0	2046	2049	2049	2039	
1167	0	2046	2049	2045	2038	
1168	0	2048	2048	2044	2037	
1169	0	2050	2049	2040	2038	
1170	0	2048	2056	2042	2037	
1171	0	2053	2052	2044	2043	
1172	0	2055	2049	2048	2042	
1173	0	2056	2050	2050	2048	
1174	0	2051	2047	2047	2042	
1175	0	2047	2051	2041	2050	
1176	0	2050	2046	2041	2046	
1177	0	2050	2046	2044	2046	
1178	0	2052	2050	2046	2052	
1179	0	2049	2046	2048	2052	
1180	0	2052	2049	2050	2057	
1181	0	2050	2052	2051	2043	
1182	0	2049	2046	2046	2052	
1183	0	2048	2048	2043	2042	
1184	0	2046	2044	2049	2053	
1185	0	2046	2049	2051	2040	
1186	0	2048	2044	2050	2054	
1187	0	2046	2047	2047	2041	
1188	0	2049	2044	2040	2053	
1189	0	2050	2043	2053	2043	
1190	0	2048	2050	2050	2049	
1191	0	2046	2047	2054	2040	
1192	0	2052	2051	2054	2050	
1193	0	2052	2046	2042	2038	
1194	0	2053	2050	2054	2057	
1195	0	2052	2050	2053	2043	
1196	0	2051	2053	2037	2044	
1197	0	2052	2046	2051	2061	
1198	0	2051	2048	2050	2047	
1199	0	2048	2051	2042	2051	
1200	0	2049	2051	2051	2053	
1201	0	2047	2051	2044	2045	
1202	0	2050	2050	2045	2055	
1203	0	2050	2044	2046	2035	
1204	0	2044	2044	2045	2047	
1205	0	2046	2047	2049	2047	
1206	0	2043	2051	2046	2042	
1207	0	2046	2047	2036	2050	
1208	0	2047	2048	2051	2041	
1209	0	2053	2044	2042	2053	
1210	0	2048	2049	2042	2041	
1211	0	2051	2048	2050	2054	
1212	0	2051	2049	2052	2038	
1213	0	2055	2050	2051	2049	
1214	0	2052	2049	2053	2050	
1215	0	2047	2050	2046	2054	
1216	0	2049	2053	2042	2047	
1217	0	2047	2042	2055	2052	
1218	0	2054	2054	2059	2039	
1219	0	2053	2054	2047	2049	
1220	0	2051	2055	2052	2041	
1221	0	2049	2046	2055	2053	
1222	0	2052	2051	2045	2040	
1223	0	2052	2044	2055	2051	
1224	0	2050	2047	2049	2042	
1225	0	2044	2044	2036	2047	
1226	0	2048	2048	2051	2047	
1227	0	2048	2045	2043	2040	
1228	0	2046	2047	2041	2049	
1229	0	2047	2043	2053	2041	
1230	0	2051	2048	2051	2046	
1231	0	2052	2047	2044	2043	
1232	0	2050	2049	2048	2059	
1233	0	2049	2049	2048	2045	
1234	0	2050	2048	2051	2057	
1235	0	2053	2049	2046	2046	
1236	0	2048	2052	2052	2054	
1237	0	2053	2047	2057	2048	
1238	0	2053	2048	2040	2046	
1239	0	2051	2057	2050	2056	
1240	0	2048	2049	2051	2038	
1241	0	2048	2053	2042	2050	
1242	0	2046	2043	2048	2055	
1243	0	2046	2049	2045	2042	
1244	0	2051	2046	2040	2051	
1245	0	2048	2053	2045	2032	
1246	0	2047	2047	2053	2047	
1247	0	2050	2049	2053	2044	
1248	0	2047	2048	2038	2045	
1249	0	2053	2044	2048	2054	
1250	0	2050	2052	2050	2040	
1251	0	2050	2044	2053	2050	
1252	0	2051	2052	2045	2043	
1253	0	2053	2050	2050	2047	
1254	0	2054	2057	2051	2058	
1255	0	2047	2041	2043	2041	
1256	0	2051	2051	2053	2055	
1257	0	2047	2046	2055	2048	
1258	0	2051	2053	2047	2048	
1259	0	2050	2048	2051	2057	
1260	0	2046	2053	2050	2041	
1261	0	2048	2048	2053	2053	
1262	0	2048	2049	2043	2042	
1263	0	2047	2051	2048	2047	
1264	0	2046	2047	2049	2052	
1265	0	2045	2047	2040	2039	
1266	0	2048	2047	2050	2051	
1267	0	2049	2045	2045	2036	
1268	0	2046	2044	2041	2049	
1269	0	2046	2048	2050	2039	
1270	0	2050	2051	2051	2057	
1271	0	2047	2047	2040	2038	
1272	0	2052	2049	2051	2053	
1273	0	2057	2044	2050	2045	
1274	0	2053	2053	2050	2057	
1275	0	2054	2050	2047	2043	
1276	0	2050	2055	2045	2057	
1277	0	2046	2052	2050	2047	
1278	0	2052	2049	2051	2045	
1279	0	2051	2047	2044	2056	
1280	0	2047	2043	2050	2047	
1281	0	2048	2051	2056	2050	
1282	0	2044	2046	2038	2042	
1283	0	2047	2054	2052	2047	
1284	0	2045	2044	2053	2048	
1285	0	2046	2051	2036	2046	
1286	0	2049	2046	2045	2049	
1287	0	2049	2052	2052	2040	
1288	0	2051	2044	2053	2052	
1289	0	2052	2049	2049	2042	
1290	0	2046	2047	2052	2055	
1291	0	2048	2054	2043	2048	
1292	0	2047	2048	2051	2050	
1293	0	2048	2056	2055	2052	
1294	0	2052	2046	2042	2047	
1295	0	2055	2051	2050	2057	
1296	0	2052	2044	2052	2043	
1297	0	2054	2052	2052	2050	
1298	0	2054	2052	2052	2051	
1299	0	2054	2046	2041	2043	
1300	0	2047	2051	2051	2051	
1301	0	2045	2043	2055	2043	
1302	0	2050	2047	2047	2053	
1303	0	2049	2045	2049	2047	
1304	0	2050	2049	2050	2048	
1305	0	2047	2044	2037	2045	
1306	0	2051	2042	2036	2044	
1307	0	2043	2042	2039	2040	
1308	0	2044	2047	2040	2043	
1309	0	2045	2048	2036	2040	
1310	0	2054	2048	2041	2045	
1311	0	2050	2052	2052	2048	
1312	0	2052	2049	2054	2046	
1313	0	2054	2049	2053	2049	
1314	0	2052	2046	2054	2050	
1315	0	2050	2042	2048	2047	
1316	0	2050	2046	2045	2044	
1317	0	2051	2052	2046	2040	
1318	0	2051	2053	2048	2041	
1319	0	2052	2051	2046	2040	
1320	0	2051	2046	2053	2047	
1321	0	2046	2050	2046	2044	
1322	0	2047	2049	2049	2041	
1323	0	2048	2051	2051	2038	
1324	0	2048	2051	2050	2042	
1325	0	2048	2053	2048	2040	
1326	0	2049	2052	2040	2035	
1327	0	2047	2051	2039	2036	
1328	0	2045	2050	2045	2034	
1329	0	2047	2051	2051	2040	
1330	0	2052	2050	2055	2043	
1331	0	2052	2049	2052	2042	
1332	0	2055	2046	2056	2042	
1333	0	2053	2052	2047	2045	
1334	0	2051	2053	2048	2042	
1335	0	2050	2052	2048	2042	
1336	0	2051	2045	2046	2042	
1337	0	2050	2045	2050	2044	
1338	0	2048	2044	2050	2047	
1339	0	2050	2047	2051	2048	
1340	0	2049	2044	2042	2051	
1341	0	2047	2051	2043	2058	
1342	0	2048	2053	2046	2051	
1343	0	2048	2049	2047	2053	
1344	0	2049	2048	2048	2055	
1345	0	2043	2049	2053	2052	
1346	0	2047	2050	2049	2052	
1347	0	2046	2050	2043	2051	
1348	0	2046	2050	2050	2046	
1349	0	2049	2055	2047	2048	
1350	0	2049	2052	2049	2045	
1351	0	2050	2054	2049	2039	
1352	0	2053	2050	2050	2042	
1353	0	2052	2048	2049	2057	
1354	0	2053	2052	2046	2056	
1355	0	2049	2053	2050	2055	
1356	0	2052	2049	2051	2056	
1357	0	2051	2047	2052	2051	
1358	0	2049	2049	2054	2046	
1359	0	2050	2046	2050	2047	
1360	0	2054	2047	2043	2047	
1361	0	2050	2048	2040	2046	
1362	0	2047	2044	2049	2046	
1363	0	2046	2045	2052	2045	
1364	0	2044	2044	2044	2046	
1365	0	2046	2047	2044	2045	
1366	0	2049	2045	2051	2046	
1367	0	2046	2047	2052	2048	
1368	0	2045	2047	2054	2037	
1369	0	2047	2047	2049	2057	
1370	0	2051	2048	2042	2041	
1371	0	2054	2052	2053	2053	
1372	0	2052	2049	2045	2041	
1373	0	2054	2053	2053	2056	
1374	0	2050	2047	2042	2042	
1375	0	2052	2052	2052	2057	
1376	0	2051	2044	2052	2045	
1377	0	2051	2054	2037	2054	
1378	0	2051	2050	2051	2045	
1379	0	2049	2054	2051	2060	
1380	0	2048	2047	2043	2044	
1381	0	2051	2057	2055	2052	
1382	0	2049	2052	2046	2041	
1383	0	2050	2050	2046	2052	
1384	0	2046	2045	2044	2042	
1385	0	2045	2051	2048	2047	
1386	0	2044	2046	2052	2042	
1387	0	2043	2051	2038	2046	
1388	0	2051	2047	2048	2043	
1389	0	2047	2050	2051	2054	
1390	0	2052	2044	2038	2041	
1391	0	2051	2050	2055	2051	
1392	0	2052	2049	2050	2039	
1393	0	2051	2052	2044	2051	
1394	0	2053	2058	2055	2042	
1395	0	2052	2046	2051	2052	
1396	0	2053	2054	2053	2041	
1397	0	2053	2042	2044	2053	
1398	0	2050	2053	2048	2046	
1399	0	2051	2045	2050	2052	
1400	0	2049	2053	2048	2041	
1401	0	2048	2049	2048	2052	
1402	0	2046	2053	2051	2044	
1403	0	2051	2044	2044	2051	
1404	0	2048	2048	2054	2038	
1405	0	2047	2044	2049	2047	
1406	0	2047	2049	2037	2038	
1407	0	2046	2044	2052	2045	
1408	0	2045	2053	2052	2043	
1409	0	2048	2048	2040	2052	
1410	0	2045	2055	2047	2042	
1411	0	2049	2048	2053	2056	
1412	0	2053	2057	2045	2042	
1413	0	2051	2048	2051	2053	
1414	0	2050	2050	2053	2045	
1415	0	2052	2045	2050	2056	
1416	0	2052	2053	2046	2044	
1417	0	2052	2050	2046	2061	
1418	0	2052	2053	2049	2043	
1419	0	2047	2046	2047	2058	
1420	0	2051	2046	2039	2041	
1421	0	2049	2048	2051	2055	
1422	0	2046	2046	2047	2039	
1423	0	2046	2051	2045	2049	
1424	0	2047	2046	2048	2038	
1425	0	2051	2045	2048	2049	
1426	0	2048	2044	2054	2039	
1427	0	2051	2049	2050	2044	
1428	0	2046	2046	2049	2041	
1429	0	2051	2053	2047	2050	
1430	0	2048	2048	2051	2044	
1431	0	2048	2053	2046	2053	
1432	0	2048	2047	2054	2042	
1433	0	2053	2051	2051	2055	
1434	0	2053	2045	2049	2049	
1435	0	2052	2048	2049	2050	
1436	0	2051	2044	2050	2052	
1437	0	2050	2046	2050	2047	
1438	0	2052	2048	2051	2056	
1439	0	2050	2047	2042	2040	
1440	0	2049	2045	2047	2052	
1441	0	2047	2049	2042	2045	
1442	0	2050	2046	2053	2054	
1443	0	2047	2050	2053	2040	
1444	0	2050	2045	2046	2052	
1445	0	2044	2054	2046	2039	
1446	0	2045	2043	2038	2050	
1447	0	2044	2049	2046	2042	
1448	0	2047	2044	2049	2052	
1449	0	2046	2049	2038	2040	
1450	0	2049	2049	2052	2056	
1451	0	2051	2049	2052	2040	
1452	0	2050	2056	2040	2049	
1453	0	2053	2049	2056	2042	
1454	0	2052	2056	2051	2046	
1455	0	2050	2045	2039	2047	
1456	0	2050	2052	2051	2042	
1457	0	2050	2045	2054	2055	
1458	0	2049	2052	2042	2045	
1459	0	2054	2050	2050	2058	
1460	0	2051	2051	2052	2046	
1461	0	2052	2045	2040	2054	
1462	0	2048	2050	2052	2041	
1463	0	2044	2052	2049	2052	
1464	0	2047	2043	2040	2038	
1465	0	2046	2052	2051	2047	
1466	0	2049	2043	2044	2045	
1467	0	2051	2052	2040	2045	
1468	0	2051	2046	2050	2053	
1469	0	2048	2050	2052	2046	
1470	0	2048	2046	2040	2054	
1471	0	2052	2052	2051	2039	
1472	0	2046	2052	2048	2051	
1473	0	2048	2048	2051	2043	
1474	0	2056	2055	2055	2052	
1475	0	2050	2047	2051	2042	
1476	0	2049	2051	2048	2048	
1477	0	2050	2047	2050	2049	
1478	0	2049	2048	2052	2044	
1479	0	2048	2047	2055	2043	
1480	0	2047	2050	2054	2040	
1481	0	2045	2050	2055	2040	
1482	0	2046	2050	2049	2048	
1483	0	2045	2053	2045	2050	
1484	0	2047	2052	2048	2054	
1485	0	2046	2048	2047	2046	
1486	0	2049	2045	2049	2040	
1487	0	2049	2045	2044	2042	
1488	0	2049	2047	2039	2046	
1489	0	2049	2045	2044	2058	
1490	0	2047	2040	2051	2041	
1491	0	2053	2050	2056	2050	
1492	0	2054	2050	2041	2044	
1493	0	2052	2047	2055	2043	
1494	0	2051	2051	2049	2052	
1495	0	2052	2048	2050	2039	
1496	0	2054	2051	2037	2056	
1497	0	2053	2051	2048	2042	
1498	0	2050	2051	2047	2052	
1499	0	2049	2052	2046	2044	
1500	0	2051	2047	2049	2050	
1501	0	2047	2050	2042	2050	
1502	0	2043	2044	2050	2052	
1503	0	2045	2047	2043	2046	
1504	0	2048	2045	2051	2041	
1505	0	2047	2047	2047	2052	
1506	0	2046	2053	2051	2038	
1507	0	2049	2050	2043	2051	
1508	0	2048	2054	2053	2037	
1509	0	2052	2045	2048	2046	
1510	0	2053	2050	2046	2050	
1511	0	2051	2052	2045	2044	
1512	0	2050	2044	2056	2055	
1513	0	2053	2052	2053	2040	
1514	0	2049	2050	2048	2055	
1515	0	2054	2051	2041	2049	
1516	0	2055	2054	2055	2048	
1517	0	2054	2046	2048	2055	
1518	0	2053	2050	2057	2044	
1519	0	2048	2049	2044	2051	
1520	0	2047	2042	2044	2050	
1521	0	2048	2053	2049	2041	
1522	0	2050	2046	2049	2055	
1523	0	2046	2050	2044	2036	
1524	0	2049	2049	2049	2045	
1525	0	2048	2049	2046	2040	
1526	0	2046	2051	2052	2045	
1527	0	2047	2043	2039	2042	
1528	0	2050	2051	2050	2044	
1529	0	2049	2043	2045	2056	
1530	0	2050	2048	2060	2040	
1531	0	2052	2053	2041	2057	
1532	0	2055	2050	2049	2040	
1533	0	2049	2050	2047	2059	
1534	0	2053	2049	2053	2042	
1535	0	2052	2056	2048	2056	
1536	0	2051	2048	2053	2044	
1537	0	2048	2056	2049	2060	
1538	0	2047	2045	2051	2040	
1539	0	2049	2049	2052	2057	
1540	0	2046	2044	2039	2047	
1541	0	2048	2050	2050	2058	
1542	0	2052	2046	2046	2048	
1543	0	2050	2045	2047	2042	
1544	0	2050	2052	2045	2048	
1545	0	2048	2048	2051	2038	
1546	0	2043	2052	2047	2050	
1547	0	2046	2043	2042	2039	
1548	0	2049	2048	2051	2047	
1549	0	2048	2046	2046	2043	
1550	0	2044	2048	2049	2055	
1551	0	2048	2047	2047	2041	
1552	0	2052	2048	2047	2056	
1553	0	2055	2045	2051	2043	
1554	0	2052	2050	2054	2053	
1555	0	2049	2048	2039	2045	
1556	0	2055	2048	2054	2056	
1557	0	2048	2048	2056	2052	
1558	0	2045	2045	2041	2045	
1559	0	2047	2052	2046	2057	
1560	0	2048	2045	2044	2043	
1561	0	2050	2052	2040	2054	
1562	0	2049	2052	2047	2044	
1563	0	2048	2048	2050	2046	
1564	0	2048	2056	2053	2053	
1565	0	2046	2043	2042	2033	
1566	0	2049	2045	2048	2046	
1567	0	2047	2046	2051	2035	
1568	0	2051	2045	2042	2036	
1569	0	2048	2046	2049	2054	
1570	0	2049	2044	2049	2039	
1571	0	2054	2052	2051	2054	
1572	0	2051	2055	2047	2042	
1573	0	2050	2047	2053	2047	
1574	0	2052	2051	2048	2056	
1575	0	2054	2055	2051	2046	
1576	0	2055	2049	2046	2048	
1577	0	2051	2053	2051	2055	
1578	0	2047	2046	2057	2044	
1579	0	2051	2049	2041	2055	
1580	0	2049	2053	2055	2043	
1581	0	2049	2046	2057	2052	
1582	0	2051	2051	2047	2053	
1583	0	2051	2046	2054	2048	
1584	0	2046	2049	2050	2055	
1585	0	2046	2042	2042	2043	
1586	0	2050	2046	2055	2058	
1587	0	2050	2052	2050	2045	
1588	0	2050	2048	2045	2058	
1589	0	2051	2052	2052	2051	
1590	0	2053	2043	2052	2056	
1591	0	2052	2047	2047	2056	
1592	0	2052	2046	2059	2049	
1593	0	2052	2047	2054	2061	
1594	0	2054	2048	2058	2047	
1595	0	2053	2046	2046	2058	
1596	0	2049	2056	2051	2044	
1597	0	2049	2049	2057	2055	
1598	0	2051	2054	2042	2049	
1599	0	2052	2056	2050	2045	
1600	0	2053	2052	2055	2042	
1601	0	2051	2053	2044	2034	
1602	0	2051	2050	2044	2044	
1603	0	2046	2050	2044	2028	
1604	0	2045	2047	2028	2039	
1605	0	2046	2051	2037	2026	
1606	0	2040	2047	2034	2036	
1607	0	2039	2044	2025	2032	
1608	0	2036	2054	2032	2032	
1609	0	2040	2042	2035	2048	
1610	0	2042	2049	2027	2034	
1611	0	2046	2048	2043	2048	
1612	0	2048	2044	2042	2042	
1613	0	2046	2055	2048	2052	
1614	0	2050	2047	2036	2057	
1615	0	2047	2049	2049	2040	
1616	0	2052	2052	2050	2054	
1617	0	2056	2046	2038	2045	
1618	0	2049	2053	2052	2052	
1619	0	2047	2045	2047	2057	
1620	0	2048	2051	2046	2046	
1621	0	2052	2050	2047	2052	
1622	0	2049	2046	2055	2044	
1623	0	2053	2052	2058	2050	
1624	0	2047	2045	2042	2045	
1625	0	2047	2045	2053	2047	
1626	0	2050	2049	2049	2055	
1627	0	2047	2045	2040	2043	
1628	0	2049	2049	2044	2059	
1629	0	2049	2041	2054	2049	
1630	0	2052	2049	2058	2054	
1631	0	2053	2047	2043	2052	
1632	0	2050	2051	2054	2049	
1633	0	2052	2054	2055	2056	
1634	0	2056	2048	2057	2043	
1635	0	2054	2052	2044	2052	
1636	0	2051	2056	2057	2050	
1637	0	2053	2052	2051	2038	
1638	0	2054	2055	2050	2055	
1639	0	2048	2046	2047	2039	
1640	0	2047	2048	2055	2051	
1641	0	2049	2053	2054	2055	
1642	0	2049	2046	2044	2044	
1643	0	2051	2054	2048	2053	
1644	0	2048	2046	2049	2034	
1645	0	2046	2050	2043	2051	
1646	0	2047	2048	2051	2042	
1647	0	2044	2043	2048	2040	
1648	0	2048	2044	2052	2050	
1649	0	2048	2041	2047	2037	
1650	0	2048	2046	2050	2049	
1651	0	2050	2055	2048	2054	
1652	0	2055	2052	2039	2045	
1653	0	2051	2054	2055	2055	
1654	0	2050	2047	2051	2039	
1655	0	2050	2050	2042	2053	
1656	0	2049	2051	2055	2045	
1657	0	2053	2046	2055	2056	
1658	0	2050	2053	2039	2044	
1659	0	2050	2048	2051	2054	
1660	0	2052	2055	2048	2053	
1661	0	2050	2047	2049	2045	
1662	0	2046	2049	2049	2055	
1663	0	2052	2052	2048	2041	
1664	0	2049	2047	2050	2046	
1665	0	2046	2053	2044	2041	
1666	0	2047	2045	2050	2046	
1667	0	2048	2047	2055	2049	
1668	0	2049	2046	2042	2042	
1669	0	2050	2047	2048	2057	
1670	0	2051	2045	2045	2043	
1671	0	2051	2052	2048	2053	
1672	0	2053	2049	2048	2047	
1673	0	2053	2051	2046	2054	
1674	0	2048	2049	2052	2051	
1675	0	2049	2050	2052	2055	
1676	0	2050	2050	2038	2046	
1677	0	2050	2051	2052	2054	
1678	0	2049	2054	2049	2041	
1679	0	2047	2047	2049	2055	
1680	0	2048	2051	2041	2049	
1681	0	2047	2054	2048	2039	
1682	0	2050	2045	2055	2050	
1683	0	2050	2048	2040	2036	
1684	0	2045	2048	2050	2046	
1685	0	2046	2049	2047	2047	
1686	0	2046	2050	2046	2042	
1687	0	2046	2041	2039	2049	
1688	0	2046	2047	2047	2043	
1689	0	2046	2054	2044	2045	
1690	0	2046	2044	2052	2055	
1691	0	2052	2049	2041	2047	
1692	0	2052	2047	2052	2049	
1693	0	2054	2049	2056	2054	
1694	0	2052	2051	2041	2045	
1695	0	2054	2052	2050	2055	
1696	0	2053	2047	2054	2054	
1697	0	2053	2050	2053	2053	
1698	0	2053	2052	2052	2059	
1699	0	2050	2054	2051	2052	
1700	0	2049	2053	2050	2058	
1701	0	2045	2051	2042	2056	
1702	0	2047	2049	2050	2055	
1703	0	2046	2044	2052	2048	
1704	0	2041	2051	2044	2039	
1705	0	2048	2051	2044	2042	
1706	0	2049	2049	2047	2056	
1707	0	2050	2053	2044	2041	
1708	0	2048	2048	2048	2054	
1709	0	2050	2053	2051	2042	
1710	0	2052	2050	2048	2052	
1711	0	2049	2052	2051	2046	
1712	0	2053	2050	2048	2055	
1713	0	2054	2049	2044	2042	
1714	0	2051	2048	2050	2045	
1715	0	2052	2043	2049	2057	
1716	0	2053	2047	2040	2046	
1717	0	2048	2045	2049	2054	
1718	0	2053	2046	2053	2044	
1719	0	2048	2040	2041	2057	
1720	0	2049	2045	2051	2044	
1721	0	2051	2044	2053	2052	
1722	0	2048	2042	2042	2036	
1723	0	2052	2051	2045	2049	
1724	0	2048	2042	2049	2040	
1725	0	2050	2049	2050	2048	
1726	0	2046	2044	2044	2035	
1727	0	2045	2050	2042	2046	
1728	0	2050	2045	2046	2044	
1729	0	2048	2044	2052	2042	
1730	0	2046	2049	2056	2051	
1731	0	2052	2047	2045	2039	
1732	0	2051	2046	2056	2049	
1733	0	2050	2053	2053	2045	
1734	0	2050	2048	2043	2052	
1735	0	2053	2048	2055	2055	
1736	0	2053	2048	2057	2050	
1737	0	2054	2048	2044	2059	
1738	0	2051	2051	2050	2043	
1739	0	2046	2044	2052	2057	
1740	0	2048	2051	2050	2042	
1741	0	2051	2048	2046	2057	
1742	0	2048	2047	2046	2039	
1743	0	2046	2049	2040	2050	
1744	0	2045	2046	2048	2035	
1745	0	2043	2047	2042	2050	
1746	0	2044	2046	2048	2035	
1747	0	2045	2054	2049	2047	
1748	0	2046	2049	2035	2038	
1749	0	2048	2053	2051	2053	
1750	0	2050	2045	2049	2039	
1751	0	2052	2051	2056	2055	
1752	0	2052	2046	2054	2050	
1753	0	2053	2053	2043	2058	
1754	0	2051	2052	2051	2048	
1755	0	2053	2055	2053	2058	
1756	0	2054	2048	2041	2044	
1757	0	2049	2054	2048	2052	
1758	0	2052	2047	2051	2038	
1759	0	2050	2048	2040	2056	
1760	0	2049	2047	2051	2039	
1761	0	2049	2052	2050	2054	
1762	0	2048	2046	2039	2039	
1763	0	2050	2047	2049	2053	
1764	0	2050	2048	2051	2038	
1765	0	2047	2051	2041	2051	
1766	0	2045	2054	2052	2036	
1767	0	2042	2047	2049	2048	
1768	0	2050	2051	2044	2037	
1769	0	2045	2042	2051	2054	
1770	0	2050	2052	2050	2041	
1771	0	2049	2046	2041	2057	
1772	0	2054	2054	2054	2045	
1773	0	2053	2046	2050	2054	
1774	0	2052	2048	2042	2043	
1775	0	2053	2048	2055	2054	
1776	0	2049	2049	2050	2048	
1777	0	2050	2054	2049	2052	
1778	0	2051	2050	2051	2046	
1779	0	2047	2051	2045	2047	
1780	0	2049	2043	2050	2048	
1781	0	2047	2052	2050	2042	
1782	0	2046	2042	2045	2054	
1783	0	2049	2052	2049	2037	
1784	0	2046	2054	2038	2051	
1785	0	2045	2044	2047	2040	
1786	0	2046	2053	2051	2045	
1787	0	2048	2043	2052	2048	
1788	0	2046	2046	2048	2037	
1789	0	2046	2048	2050	2053	
1790	0	2050	2049	2050	2044	
1791	0	2051	2053	2042	2055	
1792	0	2052	2048	2054	2042	
1793	0	2054	2053	2051	2060	
1794	0	2049	2050	2040	2039	
1795	0	2050	2052	2055	2056	
1796	0	2049	2053	2047	2042	
1797	0	2050	2048	2048	2059	
1798	0	2051	2053	2051	2041	
1799	0	2051	2046	2047	2053	
1800	0	2050	2050	2044	2035	
1801	0	2048	2045	2050	2048	
1802	0	2049	2050	2042	2045	
1803	0	2049	2048	2048	2040	
1804	0	2053	2046	2047	2052	
1805	0	2046	2053	2049	2034	
1806	0	2047	2045	2052	2053	
1807	0	2051	2052	2042	2039	
1808	0	2049	2044	2050	2051	
1809	0	2046	2050	2049	2050	
1810	0	2048	2054	2051	2046	
1811	0	2049	2047	2043	2061	
1812	0	2052	2053	2053	2047	
1813	0	2052	2046	2050	2060	
1814	0	2052	2049	2046	2038	
1815	0	2049	2053	2052	2052	
1816	0	2052	2051	2050	2044	
1817	0	2047	2055	2053	2049	
1818	0	2055	2046	2038	2056	
1819	0	2049	2054	2051	2046	
1820	0	2048	2045	2046	2057	
1821	0	2049	2047	2038	2040	
1822	0	2045	2044	2044	2055	
1823	0	2050	2046	2046	2039	
1824	0	2049	2050	2043	2054	
1825	0	2047	2046	2053	2038	
1826	0	2048	2049	2050	2049	
1827	0	2044	2052	2041	2034	
1828	0	2048	2057	2055	2048	
1829	0	2048	2042	2049	2047	
1830	0	2046	2049	2049	2052	
1831	0	2051	2049	2042	2056	
1832	0	2051	2051	2051	2044	
1833	0	2051	2049	2049	2048	
1834	0	2049	2048	2041	2046	
1835	0	2049	2054	2051	2049	
1836	0	2052	2052	2058	2049	
1837	0	2047	2047	2044	2045	
1838	0	2049	2047	2047	2058	
1839	0	2050	2051	2049	2046	
1840	0	2053	2046	2048	2056	
1841	0	2049	2055	2049	2042	
1842	0	2049	2043	2053	2050	
1843	0	2045	2047	2040	2040	
1844	0	2049	2043	2048	2048	
1845	0	2046	2044	2050	2043	
1846	0	2046	2043	2038	2045	
1847	0	2045	2047	2051	2038	
1848	0	2046	2048	2046	2045	
1849	0	2047	2045	2044	2047	
1850	0	2051	2055	2051	2053	
1851	0	2054	2053	2052	2040	
1852	0	2050	2054	2041	2056	
1853	0	2053	2050	2055	2040	
1854	0	2050	2052	2055	2057	
1855	0	2050	2047	2041	2043	
1856	0	2050	2055	2053	2058	
1857	0	2054	2051	2054	2041	
1858	0	2050	2054	2041	2053	
1859	0	2051	2043	2049	2043	
1860	0	2050	2047	2049	2056	
1861	0	2049	2044	2039	2040	
1862	0	2051	2055	2048	2055	
1863	0	2049	2047	2051	2040	
1864	0	2047	2047	2039	2053	
1865	0	2049	2043	2051	2040	
1866	0	2047	2047	2045	2055	
1867	0	2045	2045	2043	2038	
1868	0	2048	2048	2048	2051	
1869	0	2050	2044	2050	2043	
1870	0	2051	2053	2043	2051	
1871	0	2049	2047	2052	2051	
1872	0	2050	2054	2052	2049	
1873	0	2055	2051	2042	2047	
1874	0	2053	2056	2049	2050	
1875	0	2049	2045	2050	2049	
1876	0	2051	2051	2051	2055	
1877	0	2048	2054	2054	2042	
1878	0	2051	2048	2045	2058	
1879	0	2050	2051	2041	2046	
1880	0	2049	2048	2048	2057	
1881	0	2046	2053	2048	2040	
1882	0	2047	2044	2053	2052	
1883	0	2048	2050	2046	2036	
1884	0	2047	2044	2046	2051	
1885	0	2052	2051	2036	2038	
1886	0	2051	2046	2048	2052	
1887	0	2050	2052	2051	2038	
1888	0	2048	2046	2043	2050	
1889	0	2048	2051	2048	2036	
1890	0	2048	2044	2045	2058	
1891	0	2048	2052	2038	2045	
1892	0	2051	2045	2051	2060	
1893	0	2054	2047	2048	2044	
1894	0	2048	2044	2041	2048	
1895	0	2051	2055	2050	2050	
1896	0	2054	2046	2051	2051	
1897	0	2048	2049	2040	2046	
1898	0	2049	2046	2053	2047	
1899	0	2051	2052	2051	2050	
1900	0	2050	2043	2050	2043	
1901	0	2050	2045	2049	2049	
1902	0	2048	2053	2048	2046	
1903	0	2047	2047	2042	2047	
1904	0	2046	2048	2047	2035	
1905	0	2046	2049	2051	2037	
1906	0	2045	2048	2036	2053	
1907	0	2047	2045	2054	2037	
1908	0	2049	2054	2048	2049	
1909	0	2046	2049	2052	2041	
1910	0	2044	2046	2052	2046	
1911	0	2052	2053	2052	2054	
1912	0	2055	2048	2056	2040	
1913	0	2047	2053	2050	2055	
1914	0	2051	2045	2046	2049	
1915	0	2049	2048	2046	2054	
1916	0	2052	2055	2055	2056	
1917	0	2052	2054	2051	2054	
1918	0	2051	2051	2043	2044	
1919	0	2050	2046	2037	2040	
1920	0	2045	2044	2039	2046	
1921	0	2044	2045	2047	2053	
1922	0	2047	2043	2048	2057	
1923	0	2047	2045	2049	2054	
1924	0	2045	2051	2049	2042	
1925	0	2048	2047	2049	2037	
1926	0	2048	2049	2051	2041	
1927	0	2051	2053	2050	2046	
1928	0	2051	2045	2051	2052	
1929	0	2051	2042	2051	2053	
1930	0	2051	2046	2049	2045	
1931	0	2053	2053	2054	2053	
1932	0	2051	2049	2044	2047	
1933	0	2052	2050	2050	2055	
1934	0	2051	2046	2044	2044	
1935	0	2051	2048	2055	2057	
1936	0	2051	2050	2058	2048	
1937	0	2049	2054	2047	2057	
1938	0	2053	2045	2050	2052	
1939	0	2048	2054	2050	2040	
1940	0	2046	2046	2049	2055	
1941	0	2042	2054	2053	2042	
1942	0	2046	2047	2039	2044	
1943	0	2049	2053	2045	2045	
1944	0	2046	2047	2053	2045	
1945	0	2050	2050	2040	2053	
1946	0	2048	2045	2044	2037	
1947	0	2047	2051	2047	2055	
1948	0	2048	2044	2049	2040	
1949	0	2049	2054	2050	2054	
1950	0	2050	2050	2052	2041	
1951	0	2053	2053	2050	2053	
1952	0	2051	2045	2048	2045	
1953	0	2053	2054	2046	2056	
1954	0	2056	2048	2054	2041	
1955	0	2057	2052	2047	2053	
1956	0	2051	2052	2039	2039	
1957	0	2052	2050	2052	2055	
1958	0	2051	2052	2051	2044	
1959	0	2047	2048	2043	2053	
1960	0	2049	2050	2048	2039	
1961	0	2050	2047	2052	2054	
1962	0	2050	2057	2050	2044	
1963	0	2047	2043	2046	2053	
1964	0	2044	2051	2042	2045	
1965	0	2049	2042	2049	2038	
1966	0	2042	2046	2048	2052	
1967	0	2047	2048	2041	2038	
1968	0	2048	2047	2052	2054	
1969	0	2053	2051	2043	2048	
1970	0	2051	2046	2051	2043	
1971	0	2047	2050	2056	2053	
1972	0	2051	2045	2044	2044	
1973	0	2051	2050	2051	2054	
1974	0	2053	2044	2045	2040	
1975	0	2050	2052	2051	2055	
1976	0	2053	2046	2052	2040	
1977	0	2052	2052	2042	2057	
1978	0	2052	2049	2054	2041	
1979	0	2050	2047	2053	2056	
1980	0	2047	2048	2051	2042	
1981	0	2051	2048	2052	2056	
1982	0	2048	2051	2048	2041	
1983	0	2047	2044	2051	2048	
1984	0	2046	2050	2051	2041	
1985	0	2049	2044	2053	2049	
1986	0	2048	2052	2039	2038	
1987	0	2046	2042	2049	2049	
1988	0	2046	2048	2050	2039	
1989	0	2045	2043	2040	2056	
1990	0	2051	2049	2050	2045	
1991	0	2051	2048	2049	2055	
1992	0	2051	2051	2054	2044	
1993	0	2050	2054	2050	2054	
1994	0	2051	2050	2053	2046	
1995	0	2046	2053	2055	2056	
1996	0	2050	2053	2041	2044	
1997	0	2051	2050	2049	2055	
1998	0	2053	2049	2047	2041	
1999	0	2051	2047	2040	2054	
2000	0	2051	2051	2052	2040	
2001	0	2046	2047	2050	2052	
2002	0	2047	2054	2042	2040	
2003	0	2046	2043	2049	2052	
2004	0	2046	2052	2046	2036	
2005	0	2047	2045	2042	2050	
2006	0	2046	2049	2048	2040	
2007	0	2047	2044	2051	2051	
2008	0	2050	2055	2040	2042	
2009	0	2048	2046	2054	2046	
2010	0	2053	2052	2053	2049	
2011	0	2053	2046	2051	2042	
2012	0	2055	2051	2050	2057	
2013	0	2055	2049	2042	2041	
2014	0	2047	2053	2054	2057	
2015	0	2053	2049	2052	2046	
2016	0	2050	2051	2039	2054	
2017	0	2051	2046	2052	2046	
2018	0	2050	2054	2053	2051	
2019	0	2049	2046	2049	2054	
2020	0	2048	2052	2046	2040	
2021	0	2050	2044	2036	2055	
2022	0	2050	2052	2049	2042	
2023	0	2047	2052	2051	2053	
2024	0	2047	2044	2039	2048	
2025	0	2049	2046	2048	2042	
2026	0	2050	2045	2054	2047	
2027	0	2042	2050	2044	2041	
2028	0	2049	2050	2050	2048	
2029	0	2043	2051	2051	2040	
2030	0	2047	2053	2052	2053	
2031	0	2048	2048	2050	2038	
2032	0	2051	2051	2050	2051	
2033	0	2049	2049	2047	2041	
2034	0	2052	2048	2050	2059	
2035	0	2055	2044	2054	2043	
2036	0	2049	2056	2046	2052	
2037	0	2049	2046	2052	2042	
2038	0	2048	2050	2054	2058	
2039	0	2049	2047	2040	2043	
2040	0	2051	2048	2051	2046	
2041	0	2050	2050	2050	2054	
2042	0	2048	2044	2037	2043	
2043	0	2047	2048	2049	2060	
2044	0	2045	2048	2053	2038	
2045	0	2047	2050	2037	2050	
2046	0	2048	2053	2049	2037	
2047	0	2048	2048	2046	2050	
2048	0	2049	2052	2042	2037	
2049	0	2050	2044	2050	2057	
2050	0	2050	2051	2050	2039	
2051	0	2054	2045	2045	2053	
2052	0	2055	2053	2053	2042	
2053	0	2052	2050	2051	2052	
2054	0	2050	2054	2039	2051	
2055	0	2054	2046	2051	2044	
2056	0	2053	2050	2052	2054	
2057	0	2050	2050	2037	2042	
2058	0	2053	2057	2050	2056	
2059	0	2050	2046	2053	2046	
2060	0	2050	2053	2043	2048	
2061	0	2049	2047	2055	2053	
2062	0	2047	2050	2051	2050	
2063	0	2047	2045	2039	2047	
2064	0	2049	2049	2052	2036	
2065	0	2050	2046	2054	2046	
2066	0	2047	2050	2041	2034	
2067	0	2051	2051	2050	2054	
2068	0	2051	2051	2052	2043	
2069	0	2050	2045	2042	2058	
2070	0	2047	2052	2051	2043	
2071	0	2050	2048	2053	2055	
2072	0	2048	2053	2039	2043	
2073	0	2050	2045	2054	2059	
2074	0	2055	2046	2053	2044	
2075	0	2046	2047	2055	2060	
2076	0	2050	2051	2045	2043	
2077	0	2050	2053	2051	2058	
2078	0	2052	2046	2052	2043	
2079	0	2049	2053	2038	2055	
2080	0	2049	2044	2053	2046	
2081	0	2048	2048	2052	2054	
2082	0	2048	2046	2036	2043	
2083	0	2052	2050	2050	2041	
2084	0	2046	2045	2050	2048	
2085	0	2048	2047	2050	2038	
2086	0	2048	2045	2048	2049	
2087	0	2047	2051	2041	2040	
2088	0	2049	2049	2052	2053	
2089	0	2050	2050	2057	2041	
2090	0	2055	2051	2041	2048	
2091	0	2047	2049	2049	2052	
2092	0	2045	2048	2054	2047	
2093	0	2050	2048	2051	2054	
2094	0	2052	2050	2050	2049	
2095	0	2054	2055	2051	2048	
2096	0	2052	2046	2039	2050	
2097	0	2053	2051	2050	2050	
2098	0	2048	2049	2055	2048	
2099	0	2046	2053	2043	2055	
2100	0	2049	2047	2049	2054	
2101	0	2048	2048	2051	2054	
2102	0	2046	2054	2038	2053	
2103	0	2047	2054	2041	2049	
2104	0	2046	2049	2048	2050	
2105	0	2049	2049	2051	2041	
2106	0	2043	2048	2052	2038	
2107	0	2046	2051	2054	2037	
2108	0	2048	2052	2053	2042	
2109	0	2049	2052	2052	2041	
2110	0	2051	2053	2047	2044	
2111	0	2053	2053	2048	2038	
2112	0	2049	2053	2047	2039	
2113	0	2053	2050	2049	2040	
2114	0	2048	2050	2053	2040	
2115	0	2047	2049	2046	2044	
2116	0	2050	2053	2051	2047	
2117	0	2051	2051	2052	2047	
2118	0	2052	2051	2049	2049	
2119	0	2046	2050	2051	2051	
2120	0	2046	2055	2052	2054	
2121	0	2047	2049	2053	2050	
2122	0	2047	2055	2051	2043	
2123	0	2046	2052	2051	2048	
2124	0	2048	2048	2054	2053	
2125	0	2047	2054	2052	2049	
2126	0	2048	2047	2049	2049	
2127	0	2049	2049	2040	2048	
2128	0	2047	2051	2038	2051	
2129	0	2049	2050	2038	2049	
2130	0	2052	2047	2038	2058	
2131	0	2055	2050	2040	2055	
2132	0	2055	2048	2044	2053	
2133	0	2053	2050	2044	2053	
2134	0	2051	2046	2047	2053	
2135	0	2052	2049	2054	2052	
2136	0	2051	2054	2052	2047	
2137	0	2050	2051	2049	2042	
2138	0	2048	2058	2048	2045	
2139	0	2049	2052	2046	2041	
2140	0	2052	2052	2052	2042	
2141	0	2050	2050	2052	2042	
2142	0	2049	2054	2047	2041	
2143	0	2047	2052	2045	2041	
2144	0	2047	2050	2046	2039	
2145	0	2047	2049	2045	2037	
2146	0	2046	2053	2049	2039	
2147	0	2046	2053	2052	2038	
2148	0	2048	2050	2050	2038	
2149	0	2048	2050	2045	2038	
2150	0	2049	2048	2046	2045	
2151	0	2051	2054	2049	2048	
2152	0	2050	2052	2047	2046	
2153	0	2050	2050	2047	2047	
2154	0	2049	2047	2046	2053	
2155	0	2049	2047	2051	2052	
2156	0	2048	2048	2048	2056	
2157	0	2052	2044	2048	2054	
2158	0	2050	2045	2048	2053	
2159	0	2047	2046	2048	2055	
2160	0	2044	2047	2045	2048	
2161	0	2049	2047	2047	2043	
2162	0	2055	2049	2046	2037	
2163	0	2049	2047	2051	2039	
2164	0	2050	2048	2051	2043	
2165	0	2050	2052	2050	2040	
2166	0	2045	2052	2050	2042	
2167	0	2046	2053	2049	2047	
2168	0	2049	2052	2051	2053	
2169	0	2051	2045	2046	2056	
2170	0	2052	2048	2047	2051	
2171	0	2051	2044	2050	2052	
2172	0	2050	2047	2050	2050	
2173	0	2052	2048	2046	2054	
2174	0	2050	2049	2047	2048	
2175	0	2050	2047	2048	2042	
2176	0	2049	2052	2054	2041	
2177	0	2049	2052	2054	2046	
2178	0	2050	2045	2053	2048	
2179	0	2046	2047	2057	2049	
2180	0	2049	2050	2052	2049	
2181	0	2050	2052	2049	2046	
2182	0	2052	2054	2049	2048	
2183	0	2048	2052	2050	2049	
2184	0	2045	2051	2043	2048	
2185	0	2048	2047	2047	2046	
2186	0	2048	2047	2052	2049	
2187	0	2045	2049	2045	2049	
2188	0	2048	2054	2051	2054	
2189	0	2048	2058	2050	2054	
2190	0	2051	2054	2047	2047	
2191	0	2050	2049	2053	2043	
2192	0	2052	2048	2053	2043	
2193	0	2052	2045	2050	2044	
2194	0	2053	2044	2052	2042	
2195	0	2052	2045	2050	2044	
2196	0	2049	2045	2054	2043	
2197	0	2048	2046	2048	2041	
2198	0	2051	2045	2052	2050	
2199	0	2049	2046	2044	2050	
2200	0	2047	2044	2043	2051	
2201	0	2050	2049	2044	2051	
2202	0	2049	2050	2048	2048	
2203	0	2049	2046	2052	2042	
2204	0	2046	2043	2051	2045	
2205	0	2046	2044	2049	2046	
2206	0	2046	2047	2050	2051	
2207	0	2050	2048	2049	2053	
2208	0	2050	2048	2050	2052	
2209	0	2050	2049	2049	2051	
2210	0	2050	2053	2050	2054	
2211	0	2053	2052	2049	2057	
2212	0	2054	2052	2054	2055	
2213	0	2052	2051	2054	2059	
2214	0	2051	2050	2051	2051	
2215	0	2050	2052	2054	2057	
2216	0	2053	2050	2052	2054	
2217	0	2051	2055	2054	2055	
2218	0	2052	2051	2053	2057	
2219	0	2050	2053	2049	2051	
2220	0	2048	2052	2049	2054	
2221	0	2049	2052	2038	2054	
2222	0	2048	2052	2034	2058	
2223	0	2048	2050	2035	2052	
2224	0	2047	2055	2038	2045	
2225	0	2044	2053	2037	2040	
2226	0	2047	2051	2039	2035	
2227	0	2048	2045	2039	2033	
2228	0	2050	2048	2038	2039	
2229	0	2051	2045	2044	2043	
2230	0	2047	2044	2045	2050	
2231	0	2049	2046	2045	2053	
2232	0	2053	2047	2045	2054	
2233	0	2053	2045	2041	2058	
2234	0	2051	2049	2043	2060	
2235	0	2046	2053	2041	2054	
2236	0	2048	2055	2040	2046	
2237	0	2051	2050	2041	2045	
2238	0	2049	2054	2036	2043	
2239	0	2050	2051	2037	2042	
2240	0	2048	2047	2048	2039	
2241	0	2049	2053	2037	2048	
2242	0	2049	2051	2037	2053	
2243	0	2046	2050	2045	2051	
2244	0	2052	2052	2058	2048	
2245	0	2047	2048	2048	2042	
2246	0	2045	2051	2044	2049	
2247	0	2049	2049	2046	2047	
2248	0	2050	2052	2049	2048	
2249	0	2053	2053	2049	2048	
2250	0	2050	2056	2052	2048	
2251	0	2050	2055	2050	2052	
2252	0	2051	2046	2053	2054	
2253	0	2053	2048	2049	2059	
2254	0	2054	2049	2052	2053	
2255	0	2053	2043	2051	2052	
2256	0	2050	2042	2054	2046	
2257	0	2050	2048	2054	2045	
2258	0	2046	2051	2049	2042	
2259	0	2047	2047	2051	2039	
2260	0	2048	2047	2044	2040	
2261	0	2052	2045	2040	2042	
2262	0	2055	2047	2044	2043	
2263	0	2050	2045	2045	2044	
2264	0	2048	2046	2042	2048	
2265	0	2044	2050	2042	2048	
2266	0	2046	2049	2039	2047	
2267	0	2045	2051	2038	2048	
2268	0	2049	2045	2041	2055	
2269	0	2046	2050	2044	2054	
2270	0	2052	2049	2044	2056	
2271	0	2048	2052	2044	2055	
2272	0	2052	2051	2041	2053	
2273	0	2051	2053	2042	2055	
2274	0	2048	2051	2041	2046	
2275	0	2051	2053	2038	2045	
2276	0	2049	2052	2041	2043	
2277	0	2050	2052	2038	2042	
2278	0	2051	2048	2041	2041	
2279	0	2049	2052	2043	2042	
2280	0	2052	2052	2036	2039	
2281	0	2049	2051	2038	2042	
2282	0	2048	2046	2040	2044	
2283	0	2046	2044	2041	2049	
2284	0	2046	2045	2044	2047	
2285	0	2048	2043	2044	2051	
2286	0	2053	2047	2041	2052	
2287	0	2049	2045	2035	2052	
2288	0	2044	2041	2037	2055	
2289	0	2048	2047	2044	2052	
2290	0	2046	2045	2042	2054	
2291	0	2048	2051	2044	2049	
2292	0	2054	2049	2052	2041	
2293	0	2051	2053	2051	2043	
2294	0	2053	2053	2049	2053	
2295	0	2052	2051	2054	2057	
2296	0	2052	2049	2050	2047	
2297	0	2051	2054	2037	2056	
2298	0	2047	2046	2051	2041	
2299	0	2050	2055	2051	2054	
2300	0	2051	2045	2045	2042	
2301	0	2048	2052	2052	2050	
2302	0	2049	2046	2047	2047	
2303	0	2050	2051	2040	2046	
2304	0	2050	2041	2049	2043	
2305	0	2044	2049	2048	2046	
2306	0	2046	2043	2037	2048	
2307	0	2049	2048	2056	2041	
2308	0	2048	2049	2047	2053	
2309	0	2048	2046	2046	2041	
2310	0	2048	2051	2048	2054	
2311	0	2052	2047	2051	2047	
2312	0	2049	2053	2048	2052	
2313	0	2048	2050	2052	2046	
2314	0	2053	2054	2049	2054	
2315	0	2053	2049	2038	2050	
2316	0	2053	2055	2048	2048	
2317	0	2053	2048	2049	2051	
2318	0	2049	2051	2044	2037	
2319	0	2048	2048	2054	2056	
2320	0	2046	2044	2052	2046	
2321	0	2048	2052	2045	2046	
2322	0	2049	2045	2047	2047	
2323	0	2046	2052	2044	2043	
2324	0	2045	2044	2049	2057	
2325	0	2046	2049	2046	2039	
2326	0	2046	2046	2036	2048	
2327	0	2050	2049	2049	2036	
2328	0	2050	2048	2054	2053	
2329	0	2052	2052	2046	2038	
2330	0	2049	2047	2055	2049	
2331	0	2051	2056	2049	2049	
2332	0	2049	2046	2046	2054	
2333	0	2050	2055	2054	2050	
2334	0	2050	2049	2045	2054	
2335	0	2053	2052	2043	2046	
2336	0	2049	2047	2050	2051	
2337	0	2056	2053	2046	2049	
2338	0	2050	2045	2039	2055	
2339	0	2050	2053	2053	2048	
2340	0	2049	2046	2053	2052	
2341	0	2049	2048	2043	2042	
2342	0	2050	2047	2052	2047	
2343	0	2050	2048	2045	2036	
2344	0	2042	2047	2048	2050	
2345	0	2044	2044	2051	2044	
2346	0	2048	2049	2048	2033	
2347	0	2050	2048	2048	2053	
2348	0	2049	2044	2050	2040	
2349	0	2049	2058	2049	2041	
2350	0	2052	2051	2052	2053	
2351	0	2051	2046	2056	2052	
2352	0	2050	2050	2042	2057	
2353	0	2052	2050	2044	2052	
2354	0	2051	2053	2042	2046	
2355	0	2049	2057	2040	2042	
2356	0	2049	2055	2041	2046	
2357	0	2050	2051	2041	2046	
2358	0	2049	2048	2049	2053	
2359	0	2050	2043	2050	2054	
2360	0	2049	2049	2050	2050	
2361	0	2046	2046	2051	2044	
2362	0	2047	2046	2047	2041	
2363	0	2049	2047	2051	2038	
2364	0	2051	2049	2047	2040	
2365	0	2048	2050	2044	2047	
2366	0	2047	2050	2046	2057	
2367	0	2050	2045	2046	2055	
2368	0	2050	2049	2051	2054	
2369	0	2049	2042	2057	2045	
2370	0	2051	2046	2056	2039	
2371	0	2052	2046	2058	2042	
2372	0	2052	2052	2049	2049	
2373	0	2050	2050	2046	2057	
2374	0	2054	2052	2041	2054	
2375	0	2052	2050	2042	2051	
2376	0	2051	2046	2052	2040	
2377	0	2048	2050	2047	2044	
2378	0	2049	2048	2050	2052	
2379	0	2048	2051	2052	2052	
2380	0	2053	2044	2050	2053	
2381	0	2049	2049	2048	2055	
2382	0	2047	2053	2054	2048	
2383	0	2049	2050	2047	2042	
2384	0	2051	2050	2050	2034	
2385	0	2050	2055	2048	2036	
2386	0	2046	2049	2046	2039	
2387	0	2047	2048	2051	2044	
2388	0	2052	2050	2050	2049	
2389	0	2044	2046	2054	2053	
2390	0	2047	2047	2055	2054	
2391	0	2050	2045	2055	2057	
2392	0	2053	2046	2052	2046	
2393	0	2052	2048	2056	2044	
2394	0	2050	2051	2052	2040	
2395	0	2053	2048	2055	2046	
2396	0	2052	2050	2051	2051	
2397	0	2052	2049	2047	2057	
2398	0	2052	2054	2047	2058	
2399	0	2051	2052	2044	2057	
2400	0	2050	2053	2042	2052	
2401	0	2047	2057	2040	2043	
2402	0	2047	2052	2035	2036	
2403	0	2049	2050	2035	2038	
2404	0	2051	2048	2040	2041	
2405	0	2047	2047	2038	2049	
2406	0	2047	2041	2043	2053	
2407	0	2047	2044	2041	2055	
2408	0	2047	2045	2049	2049	
2409	0	2049	2048	2053	2040	
2410	0	2049	2050	2052	2039	
2411	0	2050	2050	2051	2044	
2412	0	2048	2049	2052	2058	
2413	0	2051	2050	2050	2058	
2414	0	2047	2055	2050	2052	
2415	0	2048	2052	2047	2044	
2416	0	2053	2054	2049	2045	
2417	0	2051	2052	2051	2041	
2418	0	2052	2056	2048	2043	
2419	0	2048	2052	2049	2053	
2420	0	2049	2050	2049	2052	
2421	0	2047	2046	2051	2054	
2422	0	2046	2041	2046	2053	
2423	0	2049	2045	2055	2046	
2424	0	2045	2041	2049	2038	
2425	0	2044	2048	2048	2038	
2426	0	2045	2050	2046	2038	
2427	0	2047	2045	2052	2048	
2428	0	2048	2045	2044	2052	
2429	0	2050	2048	2049	2049	
2430	0	2051	2050	2051	2047	
2431	0	2055	2053	2055	2041	
2432	0	2053	2052	2056	2043	
2433	0	2049	2045	2056	2049	
2434	0	2050	2046	2046	2055	
2435	0	2052	2049	2046	2054	
2436	0	2051	2052	2040	2044	
2437	0	2050	2053	2042	2040	
2438	0	2050	2051	2044	2042	
2439	0	2050	2049	2038	2050	
2440	0	2049	2052	2038	2056	
2441	0	2049	2052	2039	2058	
2442	0	2046	2057	2038	2049	
2443	0	2048	2052	2040	2046	
2444	0	2048	2048	2041	2046	
2445	0	2047	2045	2038	2041	
2446	0	2049	2043	2040	2040	
2447	0	2046	2044	2038	2037	
2448	0	2047	2044	2032	2045	
2449	0	2047	2044	2034	2044	
2450	0	2051	2047	2038	2045	
2451	0	2049	2045	2044	2052	
2452	0	2050	2046	2044	2055	
2453	0	2054	2049	2042	2059	
2454	0	2054	2052	2044	2056	
2455	0	2052	2054	2047	2053	
2456	0	2050	2049	2044	2045	
2457	0	2048	2051	2044	2043	
2458	0	2052	2052	2040	2046	
2459	0	2050	2047	2048	2051	
2460	0	2050	2045	2047	2058	
2461	0	2046	2044	2047	2046	
2462	0	2051	2049	2050	2037	
2463	0	2049	2050	2047	2039	
2464	0	2047	2048	2048	2041	
2465	0	2050	2050	2044	2043	
2466	0	2046	2050	2045	2049	
2467	0	2045	2053	2046	2052	
2468	0	2046	2044	2048	2045	
2469	0	2049	2047	2053	2043	
2470	0	2050	2046	2053	2043	
2471	0	2045	2045	2057	2044	
2472	0	2049	2047	2052	2046	
2473	0	2055	2049	2056	2056	
2474	0	2054	2049	2054	2051	
2475	0	2050	2049	2052	2059	
2476	0	2054	2046	2051	2057	
2477	0	2052	2049	2053	2054	
2478	0	2048	2049	2055	2053	
2479	0	2050	2050	2056	2045	
2480	0	2048	2058	2052	2040	
2481	0	2048	2057	2054	2045	
2482	0	2043	2051	2049	2042	
2483	0	2048	2048	2045	2048	
2484	0	2047	2046	2042	2048	
2485	0	2048	2048	2035	2044	
2486	0	2048	2045	2041	2036	
2487	0	2047	2047	2038	2040	
2488	0	2050	2045	2038	2044	
2489	0	2049	2050	2042	2046	
2490	0	2048	2052	2040	2052	
2491	0	2051	2051	2047	2056	
2492	0	2052	2051	2049	2056	
2493	0	2054	2053	2051	2051	
2494	0	2052	2057	2054	2048	
2495	0	2052	2050	2050	2047	
2496	0	2050	2055	2046	2042	
2497	0	2049	2054	2042	2042	
2498	0	2049	2053	2045	2042	
2499	0	2051	2049	2054	2042	
2500	0	2048	2053	2054	2047	
2501	0	2048	2047	2046	2047	
2502	0	2045	2041	2042	2049	
2503	0	2049	2042	2046	2047	
2504	0	2045	2042	2046	2039	
2505	0	2049	2049	2046	2037	
2506	0	2045	2047	2051	2037	
2507	0	2049	2048	2047	2034	
2508	0	2048	2041	2050	2036	
2509	0	2048	2045	2052	2036	
2510	0	2050	2046	2047	2038	
2511	0	2050	2046	2052	2042	
2512	0	2048	2046	2053	2041	
2513	0	2052	2047	2052	2042	
2514	0	2051	2045	2050	2046	
2515	0	2051	2049	2055	2052	
2516	0	2056	2051	2053	2057	
2517	0	2052	2045	2050	2054	
2518	0	2050	2047	2051	2052	
2519	0	2049	2047	2053	2051	
2520	0	2047	2052	2058	2052	
2521	0	2051	2042	2051	2055	
2522	0	2050	2048	2051	2052	
2523	0	2046	2047	2049	2051	
2524	0	2047	2047	2052	2049	
2525	0	2048	2045	2053	2048	
2526	0	2047	2042	2048	2046	
2527	0	2048	2050	2048	2043	
2528	0	2049	2049	2051	2042	
2529	0	2048	2046	2043	2045	
2530	0	2047	2044	2053	2056	
2531	0	2051	2044	2062	2060	
2532	0	2054	2048	2058	2056	
2533	0	2055	2052	2052	2060	
2534	0	2056	2058	2058	2064	
2535	0	2051	2056	2056	2064	
2536	0	2055	2051	2057	2062	
2537	0	2054	2047	2056	2059	
2538	0	2050	2049	2048	2064	
2539	0	2050	2047	2043	2065	
2540	0	2049	2051	2051	2045	
2541	0	2048	2047	2046	2052	
2542	0	2048	2050	2042	2049	
2543	0	2052	2044	2049	2048	
2544	0	2047	2044	2044	2039	
2545	0	2046	2044	2042	2040	
2546	0	2046	2046	2037	2044	
2547	0	2046	2057	2039	2031	
2548	0	2046	2045	2042	2044	
2549	0	2045	2053	2029	2029	
2550	0	2045	2053	2036	2038	
2551	0	2046	2046	2034	2039	
2552	0	2046	2052	2039	2035	
2553	0	2042	2049	2032	2046	
2554	0	2047	2051	2042	2034	
2555	0	2048	2051	2040	2050	
2556	0	2048	2049	2044	2041	
2557	0	2047	2051	2039	2049	
2558	0	2046	2056	2044	2045	
2559	0	2050	2049	2047	2053	
2560	0	2045	2056	2040	2042	
2561	0	2046	2052	2047	2054	
2562	0	2050	2054	2050	2037	
2563	0	2050	2050	2043	2055	
2564	0	2050	2052	2048	2037	
2565	0	2051	2046	2046	2042	
2566	0	2050	2050	2051	2048	
2567	0	2050	2046	2056	2043	
2568	0	2047	2052	2043	2056	
2569	0	2049	2041	2057	2047	
2570	0	2052	2048	2054	2055	
2571	0	2052	2047	2048	2056	
2572	0	2051	2046	2056	2046	
2573	0	2051	2054	2055	2057	
2574	0	2051	2047	2058	2045	
2575	0	2052	2048	2039	2059	
2576	0	2053	2048	2056	2042	
2577	0	2052	2047	2052	2057	
2578	0	2052	2050	2043	2042	
2579	0	2051	2051	2049	2058	
2580	0	2051	2049	2054	2043	
2581	0	2050	2049	2042	2054	
2582	0	2048	2049	2050	2040	
2583	0	2047	2046	2058	2053	
2584	0	2047	2052	2045	2035	
2585	0	2047	2047	2053	2052	
2586	0	2051	2046	2055	2039	
2587	0	2049	2044	2040	2052	
2588	0	2047	2046	2046	2043	
2589	0	2050	2052	2050	2048	
2590	0	2051	2045	2054	2043	
2591	0	2048	2057	2047	2052	
2592	0	2050	2051	2048	2043	
2593	0	2050	2054	2052	2052	
2594	0	2050	2047	2041	2045	
2595	0	2054	2046	2055	2046	
2596	0	2053	2051	2054	2054	
2597	0	2052	2046	2045	2045	
2598	0	2052	2049	2053	2056	
2599	0	2048	2050	2048	2045	
2600	0	2050	2046	2053	2051	
2601	0	2048	2051	2040	2050	
2602	0	2050	2049	2045	2042	
2603	0	2050	2047	2047	2057	
2604	0	2049	2046	2043	2041	
2605	0	2048	2052	2050	2039	
2606	0	2048	2047	2035	2054	
2607	0	2047	2052	2051	2036	
2608	0	2049	2053	2050	2049	
2609	0	2048	2046	2058	2049	
2610	0	2052	2054	2046	2046	
2611	0	2052	2042	2054	2056	
2612	0	2049	2043	2056	2043	
2613	0	2051	2055	2043	2055	
2614	0	2050	2049	2051	2040	
2615	0	2049	2045	2048	2048	
2616	0	2051	2055	2055	2048	
2617	0	2048	2050	2042	2051	
2618	0	2050	2056	2050	2051	
2619	0	2052	2048	2053	2045	
2620	0	2050	2052	2044	2056	
2621	0	2048	2050	2046	2042	
2622	0	2047	2045	2044	2055	
2623	0	2049	2049	2045	2043	
2624	0	2050	2042	2050	2049	
2625	0	2047	2050	2042	2039	
2626	0	2045	2044	2048	2052	
2627	0	2048	2048	2049	2037	
2628	0	2049	2048	2050	2050	
2629	0	2047	2047	2052	2034	
2630	0	2050	2050	2037	2057	
2631	0	2051	2047	2051	2045	
2632	0	2050	2048	2048	2054	
2633	0	2049	2047	2055	2056	
2634	0	2051	2050	2039	2043	
2635	0	2053	2051	2045	2053	
2636	0	2050	2047	2055	2053	
2637	0	2050	2054	2049	2043	
2638	0	2046	2048	2051	2055	
2639	0	2049	2051	2045	2051	
2640	0	2051	2046	2050	2045	
2641	0	2050	2054	2051	2051	
2642	0	2050	2048	2045	2042	
2643	0	2047	2050	2051	2046	
2644	0	2045	2045	2038	2052	
2645	0	2050	2046	2047	2039	
2646	0	2044	2044	2052	2045	
2647	0	2047	2049	2046	2053	
2648	0	2051	2049	2050	2042	
2649	0	2052	2046	2042	2051	
2650	0	2051	2049	2052	2041	
2651	0	2050	2045	2047	2053	
2652	0	2053	2050	2053	2053	
2653	0	2052	2051	2046	2045	
2654	0	2054	2043	2056	2054	
2655	0	2052	2050	2045	2040	
2656	0	2051	2050	2048	2052	
2657	0	2050	2045	2043	2054	
2658	0	2052	2051	2048	2042	
2659	0	2049	2049	2048	2055	
2660	0	2050	2049	2052	2044	
2661	0	2050	2055	2041	2046	
2662	0	2052	2048	2047	2053	
2663	0	2050	2048	2043	2037	
2664	0	2046	2053	2046	2049	
2665	0	2048	2043	2040	2040	
2666	0	2044	2041	2046	2048	
2667	0	2046	2047	2052	2043	
2668	0	2049	2047	2040	2046	
2669	0	2048	2051	2053	2046	
2670	0	2051	2045	2055	2048	
2671	0	2049	2051	2040	2044	
2672	0	2047	2052	2053	2047	
2673	0	2053	2051	2054	2056	
2674	0	2052	2051	2043	2052	
2675	0	2051	2047	2051	2051	
2676	0	2049	2055	2046	2048	
2677	0	2051	2045	2048	2060	
2678	0	2050	2052	2048	2046	
2679	0	2046	2047	2050	2055	
2680	0	2048	2051	2050	2038	
2681	0	2046	2053	2047	2051	
2682	0	2046	2042	2051	2039	
2683	0	2046	2054	2042	2052	
2684	0	2044	2043	2047	2041	
2685	0	2047	2044	2047	2047	
2686	0	2047	2048	2050	2040	
2687	0	2049	2044	2050	2040	
2688	0	2051	2047	2041	2050	
2689	0	2052	2043	2050	2042	
2690	0	2053	2050	2052	2054	
2691	0	2051	2053	2046	2043	
2692	0	2052	2049	2048	2054	
2693	0	2050	2052	2048	2041	
2694	0	2051	2047	2050	2058	
2695	0	2048	2050	2038	2045	
2696	0	2053	2056	2054	2055	
2697	0	2047	2049	2046	2045	
2698	0	2049	2052	2043	2055	
2699	0	2053	2044	2054	2040	
2700	0	2054	2046	2047	2054	
2701	0	2052	2050	2049	2044	
2702	0	2048	2048	2045	2052	
2703	0	2046	2050	2050	2040	
2704	0	2051	2045	2047	2048	
2705	0	2048	2049	2042	2040	
2706	0	2047	2046	2049	2045	
2707	0	2046	2046	2047	2041	
2708	0	2049	2047	2044	2045	
2709	0	2054	2043	2042	2057	
2710	0	2051	2049	2053	2044	
2711	0	2049	2054	2050	2054	
2712	0	2046	2046	2050	2042	
2713	0	2053	2051	2046	2049	
2714	0	2049	2051	2054	2052	
2715	0	2044	2046	2050	2043	
2716	0	2053	2052	2041	2058	
2717	0	2050	2048	2051	2042	
2718	0	2049	2047	2046	2057	
2719	0	2051	2051	2048	2038	
2720	0	2048	2049	2054	2054	
2721	0	2045	2050	2049	2042	
2722	0	2049	2045	2051	2048	
2723	0	2045	2052	2040	2050	
2724	0	2046	2051	2052	2037	
2725	0	2049	2045	2049	2050	
2726	0	2048	2054	2038	2042	
2727	0	2046	2043	2052	2037	
2728	0	2051	2054	2054	2052	
2729	0	2051	2047	2040	2042	
2730	0	2049	2053	2048	2053	
2731	0	2050	2044	2051	2047	
2732	0	2052	2050	2043	2051	
2733	0	2054	2054	2053	2051	
2734	0	2052	2051	2050	2043	
2735	0	2051	2053	2048	2056	
2736	0	2047	2043	2051	2043	
2737	0	2046	2051	2047	2055	
2738	0	2049	2043	2042	2045	
2739	0	2050	2051	2051	2056	
2740	0	2050	2048	2047	2040	
2741	0	2054	2048	2043	2052	
2742	0	2049	2053	2044	2045	
2743	0	2050	2047	2044	2050	
2744	0	2047	2053	2044	2040	
2745	0	2049	2046	2051	2045	
2746	0	2047	2047	2051	2049	
2747	0	2045	2047	2053	2039	
2748	0	2049	2047	2041	2046	
2749	0	2050	2052	2050	2042	
2750	0	2052	2050	2047	2052	
2751	0	2052	2051	2049	2046	
2752	0	2050	2048	2054	2051	
2753	0	2053	2053	2050	2052	
2754	0	2051	2058	2055	2046	
2755	0	2049	2049	2039	2058	
2756	0	2049	2051	2047	2042	
2757	0	2048	2046	2046	2054	
2758	0	2050	2049	2044	2046	
2759	0	2047	2049	2053	2057	
2760	0	2046	2045	2054	2040	
2761	0	2049	2053	2040	2052	
2762	0	2050	2046	2048	2042	
2763	0	2048	2050	2050	2050	
2764	0	2045	2045	2037	2039	
2765	0	2046	2049	2049	2050	
2766	0	2046	2046	2044	2041	
2767	0	2048	2048	2050	2051	
2768	0	2049	2046	2048	2042	
2769	0	2051	2049	2052	2053	
2770	0	2051	2052	2048	2047	
2771	0	2051	2049	2047	2057	
2772	0	2054	2055	2053	2043	
2773	0	2053	2047	2053	2059	
2774	0	2051	2051	2041	2041	
2775	0	2050	2039	2053	2054	
2776	0	2053	2048	2046	2046	
2777	0	2052	2051	2051	2052	
2778	0	2049	2048	2043	2056	
2779	0	2050	2054	2052	2046	
2780	0	2047	2054	2053	2056	
2781	0	2047	2050	2044	2041	
2782	0	2050	2045	2052	2052	
2783	0	2046	2051	2047	2036	
2784	0	2045	2044	2046	2041	
2785	0	2045	2047	2040	2037	
2786	0	2045	2050	2050	2046	
2787	0	2045	2047	2051	2051	
2788	0	2046	2048	2053	2041	
2789	0	2049	2041	2042	2054	
2790	0	2047	2044	2049	2041	
2791	0	2053	2050	2050	2054	
2792	0	2053	2052	2046	2043	
2793	0	2051	2047	2053	2057	
2794	0	2051	2051	2050	2040	
2795	0	2050	2049	2054	2055	
2796	0	2048	2052	2043	2043	
2797	0	2056	2051	2050	2056	
2798	0	2052	2050	2049	2041	
2799	0	2050	2052	2039	2055	
2800	0	2051	2047	2048	2039	
2801	0	2048	2054	2052	2053	
2802	0	2051	2051	2042	2040	
2803	0	2052	2052	2051	2052	
2804	0	2050	2047	2043	2039	
2805	0	2046	2050	2035	2050	
2806	0	2048	2042	2044	2038	
2807	0	2049	2049	2047	2046	
2808	0	2050	2043	2049	2046	
2809	0	2050	2048	2041	2041	
2810	0	2053	2045	2052	2054	
2811	0	2054	2048	2056	2041	
2812	0	2050	2049	2041	2058	
2813	0	2051	2049	2050	2052	
2814	0	2050	2052	2045	2050	
2815	0	2050	2050	2052	2049	
2816	0	2051	2053	2049	2044	
2817	0	2051	2053	2047	2058	
2818	0	2046	2050	2054	2040	
2819	0	2051	2058	2039	2055	
2820	0	2050	2047	2049	2042	
2821	0	2048	2054	2050	2053	
2822	0	2044	2041	2040	2038	
2823	0	2046	2049	2051	2052	
2824	0	2045	2044	2049	2036	
2825	0	2044	2054	2043	2045	
2826	0	2043	2046	2051	2036	
2827	0	2046	2053	2050	2052	
2828	0	2047	2044	2041	2038	
2829	0	2049	2046	2050	2051	
2830	0	2051	2048	2054	2042	
2831	0	2056	2048	2042	2051	
2832	0	2050	2053	2053	2047	
2833	0	2048	2043	2048	2051	
2834	0	2050	2051	2042	2053	
2835	0	2053	2047	2048	2051	
2836	0	2053	2048	2045	2056	
2837	0	2050	2046	2041	2045	
2838	0	2050	2052	2051	2049	
2839	0	2047	2050	2052	2047	
2840	0	2052	2049	2038	2057	
2841	0	2051	2048	2050	2041	
2842	0	2046	2046	2046	2056	
2843	0	2046	2050	2038	2039	
2844	0	2047	2044	2047	2052	
2845	0	2047	2051	2044	2035	
2846	0	2047	2046	2038	2046	
2847	0	2051	2053	2049	2035	
2848	0	2046	2048	2047	2046	
2849	0	2051	2046	2051	2044	
2850	0	2048	2052	2050	2050	
2851	0	2050	2046	2051	2053	
2852	0	2046	2054	2053	2049	
2853	0	2048	2044	2042	2055	
2854	0	2049	2051	2050	2043	
2855	0	2049	2047	2050	2061	
2856	0	2050	2052	2049	2041	
2857	0	2049	2054	2052	2058	
2858	0	2051	2044	2048	2047	
2859	0	2053	2052	2045	2057	
2860	0	2052	2048	2048	2047	
2861	0	2049	2052	2049	2046	
2862	0	2051	2047	2056	2052	
2863	0	2052	2048	2042	2037	
2864	0	2052	2052	2049	2050	
2865	0	2048	2046	2045	2040	
2866	0	2044	2051	2045	2048	
2867	0	2048	2046	2043	2038	
2868	0	2044	2050	2048	2038	
2869	0	2049	2051	2057	2046	
2870	0	2051	2048	2040	2044	
2871	0	2053	2052	2052	2053	
2872	0	2051	2048	2055	2044	
2873	0	2050	2052	2044	2058	
2874	0	2050	2047	2056	2045	
2875	0	2049	2050	2054	2059	
2876	0	2049	2046	2040	2043	
2877	0	2053	2053	2046	2054	
2878	0	2053	2045	2055	2042	
2879	0	2053	2047	2040	2056	
2880	0	2049	2048	2051	2045	
2881	0	2045	2044	2043	2044	
2882	0	2051	2047	2038	2051	
2883	0	2048	2046	2044	2042	
2884	0	2049	2056	2048	2052	
2885	0	2047	2048	2048	2040	
2886	0	2047	2051	2042	2048	
2887	0	2049	2047	2053	2046	
2888	0	2050	2049	2052	2044	
2889	0	2048	2045	2038	2049	
2890	0	2048	2047	2050	2045	
2891	0	2048	2047	2051	2056	
2892	0	2050	2049	2038	2044	
2893	0	2052	2048	2057	2055	
2894	0	2050	2049	2052	2038	
2895	0	2053	2055	2044	2050	
2896	0	2052	2046	2049	2043	
2897	0	2049	2054	2047	2055	
2898	0	2050	2044	2050	2049	
2899	0	2047	2054	2049	2051	
2900	0	2050	2044	2048	2050	
2901	0	2048	2050	2047	2040	
2902	0	2054	2046	2041	2056	
2903	0	2051	2047	2048	2040	
2904	0	2046	2049	2042	2047	
2905	0	2046	2046	2046	2035	
2906	0	2049	2050	2049	2050	
2907	0	2049	2042	2051	2049	
2908	0	2049	2052	2052	2043	
2909	0	2048	2048	2039	2056	
2910	0	2051	2047	2055	2047	
2911	0	2053	2050	2044	2055	
2912	0	2050	2048	2053	2038	
2913	0	2047	2057	2044	2052	
2914	0	2051	2046	2050	2044	
2915	0	2048	2054	2052	2054	
2916	0	2049	2048	2040	2052	
2917	0	2053	2052	2049	2048	
2918	0	2046	2054	2048	2059	
2919	0	2046	2045	2038	2040	
2920	0	2048	2051	2051	2056	
2921	0	2045	2041	2047	2040	
2922	0	2049	2047	2049	2051	
2923	0	2049	2044	2047	2040	
2924	0	2047	2043	2049	2041	
2925	0	2049	2052	2048	2049	
2926	0	2049	2049	2040	2034	
2927	0	2051	2048	2053	2047	
2928	0	2052	2048	2046	2039	
2929	0	2048	2047	2041	2052	
2930	0	2050	2054	2051	2052	
2931	0	2050	2049	2054	2053	
2932	0	2052	2051	2041	2044	
2933	0	2050	2045	2054	2042	
2934	0	2049	2049	2050	2054	
2935	0	2049	2051	2051	2043	
2936	0	2049	2050	2053	2059	
2937	0	2048	2054	2053	2046	
2938	0	2048	2047	2052	2054	
2939	0	2048	2050	2039	2048	
2940	0	2049	2046	2048	2052	
2941	0	2051	2049	2044	2048	
2942	0	2050	2044	2039	2047	
2943	0	2047	2049	2051	2048	
2944	0	2046	2050	2050	2046	
2945	0	2049	2046	2036	2049	
2946	0	2048	2051	2048	2038	
2947	0	2052	2045	2052	2052	
2948	0	2049	2050	2046	2043	
2949	0	2051	2043	2053	2052	
2950	0	2052	2049	2056	2040	
2951	0	2052	2048	2040	2051	
2952	0	2050	2049	2049	2042	
2953	0	2051	2053	2056	2051	
2954	0	2052	2047	2043	2045	
2955	0	2051	2054	2053	2051	
2956	0	2049	2045	2049	2056	
2957	0	2049	2054	2046	2043	
2958	0	2049	2049	2052	2052	
2959	0	2051	2050	2051	2038	
2960	0	2045	2053	2052	2053	
2961	0	2048	2047	2037	2050	
2962	0	2050	2050	2045	2040	
2963	0	2049	2046	2046	2053	
2964	0	2048	2046	2052	2040	
2965	0	2046	2049	2038	2048	
2966	0	2048	2049	2048	2053	
2967	0	2050	2050	2048	2037	
2968	0	2044	2052	2050	2049	
2969	0	2046	2046	2042	2040	
2970	0	2051	2052	2049	2053	
2971	0	2054	2052	2058	2051	
2972	0	2052	2049	2042	2050	
2973	0	2050	2046	2052	2056	
2974	0	2053	2047	2051	2047	
2975	0	2054	2052	2044	2057	
2976	0	2054	2048	2054	2045	
2977	0	2053	2053	2052	2054	
2978	0	2047	2046	2052	2045	
2979	0	2050	2055	2043	2043	
2980	0	2050	2054	2051	2057	
2981	0	2050	2045	2051	2039	
2982	0	2048	2046	2050	2048	
2983	0	2049	2053	2047	2047	
2984	0	2044	2048	2039	2034	
2985	0	2048	2047	2050	2049	
2986	0	2048	2048	2039	2041	
2987	0	2048	2040	2045	2045	
2988	0	2046	2045	2043	2059	
2989	0	2053	2048	2048	2043	
2990	0	2053	2049	2053	2053	
2991	0	2049	2050	2050	2051	
2992	0	2053	2044	2055	2044	
2993	0	2046	2052	2049	2059	
2994	0	2050	2047	2051	2044	
2995	0	2052	2049	2051	2058	
2996	0	2054	2053	2049	2044	
2997	0	2050	2048	2053	2053	
2998	0	2046	2056	2041	2038	
2999	0	2047	2051	2048	2054	
3000	0	2052	2052	2046	2039	
3001	0	2050	2046	2050	2050	
3002	0	2047	2048	2040	2044	
3003	0	2050	2052	2052	2042	
3004	0	2048	2047	2054	2051	
3005	0	2047	2050	2038	2045	
3006	0	2046	2045	2049	2050	
3007	0	2049	2048	2046	2037	
3008	0	2047	2052	2041	2052	
3009	0	2049	2041	2046	2042	
3010	0	2051	2051	2046	2052	
3011	0	2052	2044	2046	2045	
3012	0	2052	2054	2052	2045	
3013	0	2050	2047	2049	2057	
3014	0	2052	2047	2054	2045	
3015	0	2049	2052	2049	2060	
3016	0	2054	2045	2055	2045	
3017	0	2051	2053	2053	2051	
3018	0	2050	2049	2040	2047	
3019	0	2048	2047	2054	2042	
3020	0	2045	2053	2047	2056	
3021	0	2045	2045	2043	2042	
3022	0	2050	2048	2046	2054	
3023	0	2051	2048	2048	2039	
3024	0	2048	2044	2050	2047	
3025	0	2045	2049	2039	2039	
3026	0	2049	2042	2052	2043	
3027	0	2046	2051	2046	2044	
3028	0	2047	2050	2046	2043	
3029	0	2049	2046	2049	2056	
3030	0	2051	2047	2048	2047	
3031	0	2053	2048	2042	2054	
3032	0	2054	2056	2054	2044	
3033	0	2051	2050	2051	2056	
3034	0	2050	2051	2054	2044	
3035	0	2048	2052	2040	2053	
3036	0	2048	2045	2052	2057	
3037	0	2050	2052	2051	2043	
3038	0	2052	2049	2052	2053	
3039	0	2051	2051	2039	2052	
3040	0	2048	2056	2050	2041	
3041	0	2050	2049	2048	2052	
3042	0	2047	2048	2052	2047	
3043	0	2048	2051	2042	2044	
3044	0	2050	2047	2050	2049	
3045	0	2048	2048	2048	2036	
3046	0	2050	2044	2055	2048	
3047	0	2050	2044	2039	2041	
3048	0	2046	2050	2050	2042	
3049	0	2047	2045	2051	2053	
3050	0	2050	2047	2048	2040	
3051	0	2051	2055	2043	2052	
3052	0	2051	2047	2051	2046	
3053	0	2051	2050	2051	2051	
3054	0	2053	2050	2054	2057	
3055	0	2050	2045	2043	2043	
3056	0	2047	2054	2055	2055	
3057	0	2050	2046	2047	2043	
3058	0	2048	2052	2042	2051	
3059	0	2049	2048	2049	2049	
3060	0	2052	2047	2053	2047	
3061	0	2049	2052	2052	2055	
3062	0	2047	2046	2040	2038	
3063	0	2049	2050	2049	2049	
3064	0	2047	2046	2045	2037	
3065	0	2049	2051	2042	2049	
3066	0	2048	2047	2045	2041	
3067	0	2050	2044	2048	2046	
3068	0	2049	2048	2050	2042	
3069	0	2051	2051	2051	2052	
3070	0	2048	2048	2050	2050	
3071	0	2045	2048	2054	2050	
3072	0	2051	2051	2039	2047	
3073	0	2053	2048	2052	2041	
3074	0	2053	2052	2057	2051	
3075	0	2050	2046	2039	2055	
3076	0	2049	2051	2052	2054	
3077	0	2050	2046	2056	2048	
3078	0	2051	2050	2043	2056	
3079	0	2049	2049	2055	2043	
3080	0	2048	2047	2056	2052	
3081	0	2050	2046	2048	2049	
3082	0	2049	2054	2048	2043	
3083	0	2046	2048	2053	2044	
3084	0	2051	2049	2039	2043	
3085	0	2047	2051	2047	2040	
3086	0	2045	2045	2050	2043	
3087	0	2047	2053	2037	2041	
3088	0	2044	2048	2049	2054	
3089	0	2049	2050	2051	2040	
3090	0	2051	2048	2041	2056	
3091	0	2052	2051	2054	2046	
3092	0	2054	2047	2045	2058	
3093	0	2052	2053	2048	2045	
3094	0	2054	2048	2053	2056	
3095	0	2050	2052	2045	2048	
3096	0	2050	2051	2045	2059	
3097	0	2053	2045	2050	2039	
3098	0	2046	2049	2046	2057	
3099	0	2048	2048	2050	2045	
3100	0	2046	2051	2050	2053	
3101	0	2045	2045	2049	2040	
3102	0	2044	2051	2052	2051	
3103	0	2046	2048	2042	2040	
3104	0	2048	2050	2047	2043	
3105	0	2047	2051	2048	2055	
3106	0	2050	2045	2055	2042	
3107	0	2049	2048	2039	2051	
3108	0	2049	2053	2052	2043	
3109	0	2051	2044	2050	2042	
3110	0	2052	2052	2055	2054	
3111	0	2052	2044	2044	2040	
3112	0	2052	2045	2050	2057	
3113	0	2052	2051	2046	2042	
3114	0	2051	2044	2054	2053	
3115	0	2051	2052	2042	2045	
3116	0	2050	2047	2055	2045	
3117	0	2050	2046	2048	2056	
3118	0	2047	2054	2051	2048	
3119	0	2048	2044	2037	2057	
3120	0	2051	2050	2053	2043	
3121	0	2053	2052	2046	2044	
3122	0	2049	2046	2048	2053	
3123	0	2046	2050	2037	2033	
3124	0	2044	2054	2037	2044	
3125	0	2046	2041	2048	2050	
3126	0	2049	2048	2049	2035	
3127	0	2051	2053	2050	2050	
3128	0	2049	2043	2043	2042	
3129	0	2047	2049	2050	2047	
3130	0	2050	2045	2051	2053	
3131	0	2052	2054	2053	2040	
3132	0	2051	2053	2041	2054	
3133	0	2053	2052	2052	2043	
3134	0	2053	2048	2049	2048	
3135	0	2050	2050	2046	2057	
3136	0	2049	2049	2046	2046	
3137	0	2051	2055	2049	2059	
3138	0	2048	2047	2055	2044	
3139	0	2049	2046	2037	2051	
3140	0	2049	2053	2050	2050	
3141	0	2049	2048	2046	2044	
3142	0	2049	2048	2050	2052	
3143	0	2047	2045	2036	2037	
3144	0	2046	2048	2049	2051	
3145	0	2047	2048	2049	2037	
3146	0	2047	2042	2038	2050	
3147	0	2049	2050	2046	2044	
3148	0	2047	2044	2051	2042	
3149	0	2048	2052	2050	2052	
3150	0	2053	2049	2042	2040	
3151	0	2053	2047	2053	2050	
3152	0	2049	2052	2049	2049	
3153	0	2050	2049	2054	2045	
3154	0	2049	2047	2040	2056	
3155	0	2054	2051	2052	2044	
3156	0	2055	2044	2048	2051	
3157	0	2050	2048	2055	2059	
3158	0	2050	2050	2040	2044	
3159	0	2045	2051	2054	2048	
3160	0	2043	2054	2042	2055	
3161	0	2047	2044	2054	2042	
3162	0	2048	2048	2043	2045	
3163	0	2050	2050	2051	2053	
3164	0	2047	2045	2051	2037	
3165	0	2048	2051	2043	2052	
3166	0	2048	2040	2047	2041	
3167	0	2047	2049	2050	2049	
3168	0	2048	2048	2040	2039	
3169	0	2052	2053	2050	2053	
3170	0	2054	2046	2055	2041	
3171	0	2051	2053	2048	2056	
3172	0	2051	2045	2053	2044	
3173	0	2052	2051	2053	2056	
3174	0	2053	2047	2045	2041	
3175	0	2053	2048	2051	2051	
3176	0	2049	2050	2052	2046	
3177	0	2052	2049	2038	2048	
3178	0	2049	2058	2049	2051	
3179	0	2048	2046	2049	2046	
3180	0	2047	2047	2054	2057	
3181	0	2049	2044	2036	2042	
3182	0	2049	2051	2044	2048	
3183	0	2044	2050	2044	2053	
3184	0	2045	2044	2049	2043	
3185	0	2047	2043	2043	2053	
3186	0	2048	2044	2051	2039	
3187	0	2050	2055	2048	2054	
3188	0	2050	2044	2048	2036	
3189	0	2050	2050	2045	2049	
3190	0	2050	2046	2050	2052	
3191	0	2051	2047	2053	2043	
3192	0	2053	2053	2048	2056	
3193	0	2053	2049	2044	2041	
3194	0	2054	2053	2053	2048	
3195	0	2050	2047	2050	2055	
3196	0	2050	2053	2054	2040	
3197	0	2052	2052	2042	2050	
3198	0	2048	2045	2050	2050	
3199	0	2048	2053	2054	2049	
3200	0	2051	2043	2039	2058	
3201	0	2048	2052	2048	2042	
3202	0	2047	2045	2045	2050	
3203	0	2045	2050	2046	2040	
3204	0	2044	2048	2042	2041	
3205	0	2042	2048	2047	2051	
3206	0	2048	2052	2051	2036	
3207	0	2050	2045	2044	2048	
3208	0	2049	2049	2052	2043	
3209	0	2048	2047	2053	2044	
3210	0	2051	2044	2051	2057	
3211	0	2053	2053	2040	2045	
3212	0	2052	2050	2054	2057	
3213	0	2051	2055	2048	2044	
3214	0	2052	2049	2051	2044	
3215	0	2051	2051	2043	2061	
3216	0	2051	2054	2053	2041	
3217	0	2049	2046	2053	2053	
3218	0	2047	2047	2043	2055	
3219	0	2047	2050	2051	2041	
3220	0	2045	2044	2052	2051	
3221	0	2052	2046	2045	2049	
3222	0	2050	2049	2043	2039	
3223	0	2046	2046	2039	2050	
3224	0	2046	2049	2050	2042	
3225	0	2049	2045	2043	2040	
3226	0	2050	2046	2043	2048	
3227	0	2047	2055	2047	2040	
3228	0	2047	2045	2046	2047	
3229	0	2047	2053	2050	2050	
3230	0	2050	2047	2053	2049	
3231	0	2052	2052	2053	2060	
3232	0	2049	2043	2052	2044	
3233	0	2054	2050	2045	2056	
3234	0	2050	2056	2051	2044	
3235	0	2044	2047	2057	2059	
3236	0	2050	2056	2045	2042	
3237	0	2054	2049	2049	2054	
3238	0	2053	2051	2052	2044	
3239	0	2051	2044	2041	2050	
3240	0	2049	2052	2051	2038	
3241	0	2048	2044	2052	2053	
3242	0	2047	2052	2046	2037	
3243	0	2046	2045	2044	2054	
3244	0	2044	2049	2040	2038	
3245	0	2052	2045	2046	2050	
3246	0	2048	2048	2044	2037	
3247	0	2049	2049	2042	2054	
3248	0	2046	2046	2054	2037	
3249	0	2049	2049	2052	2054	
3250	0	2052	2051	2041	2039	
3251	0	2050	2050	2055	2049	
3252	0	2051	2056	2053	2046	
3253	0	2053	2047	2041	2050	
3254	0	2052	2056	2052	2053	
3255	0	2051	2047	2051	2046	
3256	0	2052	2056	2042	2057	
3257	0	2053	2051	2053	2042	
3258	0	2050	2049	2046	2052	
3259	0	2049	2056	2049	2049	
3260	0	2050	2047	2040	2043	
3261	0	2044	2050	2052	2056	
3262	0	2047	2054	2046	2041	
3263	0	2047	2047	2048	2048	
3264	0	2047	2050	2036	2051	
3265	0	2045	2051	2046	2035	
3266	0	2047	2045	2046	2046	
3267	0	2053	2046	2053	2056	
3268	0	2050	2044	2040	2043	
3269	0	2052	2045	2050	2049	
3270	0	2050	2050	2049	2047	
3271	0	2050	2046	2059	2043	
3272	0	2050	2052	2041	2061	
3273	0	2054	2057	2049	2046	
3274	0	2051	2047	2052	2046	
3275	0	2047	2046	2050	2056	
3276	0	2052	2050	2054	2041	
3277	0	2050	2045	2044	2048	
3278	0	2051	2046	2050	2055	
3279	0	2045	2050	2047	2042	
3280	0	2049	2050	2044	2055	
3281	0	2049	2051	2054	2038	
3282	0	2046	2050	2052	2054	
3283	0	2046	2054	2054	2040	
3284	0	2050	2045	2039	2044	
3285	0	2046	2047	2048	2050	
3286	0	2049	2043	2046	2042	
3287	0	2049	2047	2040	2050	
3288	0	2052	2051	2048	2042	
3289	0	2049	2051	2049	2052	
3290	0	2051	2055	2041	2037	
3291	0	2054	2050	2048	2058	
3292	0	2051	2050	2048	2045	
3293	0	2050	2047	2045	2053	
3294	0	2049	2052	2050	2057	
3295	0	2052	2048	2049	2043	
3296	0	2052	2047	2053	2054	
3297	0	2050	2052	2043	2050	
3298	0	2048	2045	2055	2042	
3299	0	2048	2050	2049	2052	
3300	0	2050	2047	2044	2035	
3301	0	2046	2048	2051	2050	
3302	0	2047	2055	2047	2046	
3303	0	2046	2046	2052	2037	
3304	0	2049	2050	2035	2050	
3305	0	2045	2046	2048	2035	
3306	0	2048	2050	2050	2051	
3307	0	2047	2054	2052	2045	
3308	0	2049	2042	2040	2044	
3309	0	2049	2047	2050	2056	
3310	0	2054	2050	2049	2047	
3311	0	2052	2046	2054	2052	
3312	0	2046	2053	2042	2044	
3313	0	2052	2045	2050	2052	
3314	0	2052	2049	2052	2054	
3315	0	2052	2050	2050	2046	
3316	0	2054	2051	2053	2057	
3317	0	2047	2048	2053	2048	
3318	0	2050	2047	2046	2054	
3319	0	2046	2056	2050	2048	
3320	0	2047	2046	2047	2053	
3321	0	2048	2051	2041	2044	
3322	0	2046	2048	2047	2052	
3323	0	2047	2051	2043	2038	
3324	0	2047	2046	2049	2057	
3325	0	2046	2049	2039	2038	
3326	0	2048	2051	2052	2050	
3327	0	2052	2044	2050	2043	
3328	0	2049	2052	2040	2042	
3329	0	2051	2046	2052	2046	
3330	0	2050	2056	2051	2041	
3331	0	2055	2044	2042	2057	
3332	0	2053	2051	2053	2040	
3333	0	2049	2048	2049	2051	
3334	0	2054	2048	2051	2048	
3335	0	2049	2056	2041	2047	
3336	0	2048	2050	2051	2057	
3337	0	2050	2049	2050	2040	
3338	0	2049	2050	2052	2056	
3339	0	2046	2045	2040	2046	
3340	0	2047	2047	2053	2043	
3341	0	2047	2045	2047	2055	
3342	0	2046	2046	2047	2043	
3343	0	2046	2053	2043	2051	
3344	0	2049	2047	2048	2046	
3345	0	2045	2049	2042	2041	
3346	0	2045	2054	2054	2050	
3347	0	2051	2047	2038	2043	
3348	0	2049	2047	2050	2040	
3349	0	2050	2053	2054	2055	
3350	0	2054	2042	2053	2045	
3351	0	2051	2050	2043	2054	
3352	0	2050	2048	2052	2043	
3353	0	2053	2048	2051	2042	
3354	0	2049	2052	2055	2054	
3355	0	2048	2045	2039	2040	
3356	0	2054	2053	2048	2060	
3357	0	2050	2056	2047	2046	
3358	0	2049	2046	2045	2050	
3359	0	2049	2048	2041	2055	
3360	0	2051	2051	2045	2040	
3361	0	2047	2045	2044	2052	
3362	0	2045	2046	2048	2049	
3363	0	2047	2048	2050	2043	
3364	0	2047	2049	2048	2052	
3365	0	2044	2053	2056	2038	
3366	0	2049	2044	2040	2050	
3367	0	2053	2049	2048	2046	
3368	0	2048	2053	2050	2040	
3369	0	2050	2046	2051	2055	
3370	0	2051	2047	2043	2047	
3371	0	2051	2042	2051	2059	
3372	0	2046	2049	2050	2043	
3373	0	2051	2052	2056	2051	
3374	0	2050	2046	2041	2045	
3375	0	2051	2050	2051	2050	
3376	0	2054	2051	2050	2050	
3377	0	2052	2050	2046	2043	
3378	0	2052	2054	2049	2057	
3379	0	2050	2045	2053	2040	
3380	0	2050	2051	2053	2052	
3381	0	2046	2048	2041	2050	
3382	0	2047	2044	2050	2045	
3383	0	2048	2049	2048	2054	
3384	0	2043	2047	2053	2037	
3385	0	2050	2045	2042	2048	
3386	0	2048	2044	2047	2048	
3387	0	2053	2046	2047	2041	
3388	0	2052	2057	2055	2051	
3389	0	2051	2045	2043	2039	
3390	0	2053	2052	2053	2053	
3391	0	2053	2050	2049	2047	
3392	0	2050	2049	2049	2052	
3393	0	2051	2055	2049	2052	
3394	0	2053	2048	2050	2052	
3395	0	2049	2056	2053	2045	
3396	0	2054	2045	2041	2050	
3397	0	2051	2050	2048	2056	
3398	0	2048	2050	2047	2044	
3399	0	2043	2046	2054	2057	
3400	0	2047	2052	2049	2043	
3401	0	2048	2043	2052	2051	
3402	0	2048	2049	2051	2039	
3403	0	2046	2048	2044	2048	
3404	0	2044	2049	2047	2048	
3405	0	2050	2053	2047	2043	
3406	0	2047	2043	2054	2053	
3407	0	2048	2045	2037	2036	
3408	0	2052	2050	2048	2049	
3409	0	2050	2044	2052	2047	
3410	0	2046	2051	2054	2047	
3411	0	2050	2050	2041	2054	
3412	0	2049	2048	2054	2042	
3413	0	2056	2050	2050	2056	
3414	0	2053	2048	2049	2043	
3415	0	2051	2052	2045	2057	
3416	0	2053	2050	2055	2045	
3417	0	2052	2050	2053	2054	
3418	0	2048	2056	2042	2057	
3419	0	2048	2047	2049	2044	
3420	0	2048	2052	2053	2054	
3421	0	2048	2051	2052	2040	
3422	0	2046	2047	2036	2053	
3423	0	2043	2050	2046	2050	
3424	0	2049	2040	2045	2038	
3425	0	2046	2051	2036	2052	
3426	0	2047	2044	2048	2038	
3427	0	2048	2043	2045	2052	
3428	0	2047	2054	2051	2040	
3429	0	2052	2046	2045	2046	
3430	0	2052	2051	2055	2051	
3431	0	2052	2053	2053	2046	
3432	0	2053	2053	2040	2052	
3433	0	2054	2055	2051	2041	
3434	0	2053	2046	2047	2054	
3435	0	2053	2056	2040	2043	
3436	0	2054	2048	2051	2059	
3437	0	2051	2052	2050	2044	
3438	0	2048	2049	2040	2055	
3439	0	2046	2055	2051	2040	
3440	0	2049	2051	2046	2048	
3441	0	2047	2050	2043	2045	
3442	0	2050	2045	2047	2050	
3443	0	2046	2046	2051	2041	
3444	0	2044	2043	2045	2049	
3445	0	2043	2046	2046	2044	
3446	0	2048	2052	2046	2049	
3447	0	2045	2046	2048	2050	
3448	0	2049	2052	2042	2041	
3449	0	2052	2044	2050	2053	
3450	0	2049	2058	2056	2046	
3451	0	2050	2050	2041	2056	
3452	0	2054	2051	2046	2052	
3453	0	2052	2048	2048	2057	
3454	0	2053	2051	2051	2047	
3455	0	2055	2049	2048	2057	
3456	0	2048	2051	2053	2040	
3457	0	2054	2049	2054	2057	
3458	0	2049	2042	2046	2042	
3459	0	2048	2052	2052	2050	
3460	0	2047	2043	2052	2052	
3461	0	2050	2051	2046	2040	
3462	0	2049	2047	2051	2050	
3463	0	2048	2046	2052	2041	
3464	0	2049	2052	2042	2043	
3465	0	2048	2044	2047	2048	
3466	0	2050	2053	2051	2040	
3467	0	2047	2047	2038	2051	
3468	0	2051	2051	2049	2035	
3469	0	2049	2043	2045	2053	
3470	0	2049	2046	2045	2039	
3471	0	2050	2057	2051	2052	
3472	0	2050	2048	2056	2053	
3473	0	2053	2053	2053	2044	
3474	0	2049	2048	2038	2056	
3475	0	2047	2046	2053	2042	
3476	0	2049	2050	2054	2060	
3477	0	2051	2050	2040	2044	
3478	0	2047	2054	2052	2055	
3479	0	2050	2048	2045	2054	
3480	0	2048	2054	2046	2042	
3481	0	2050	2044	2047	2054	
3482	0	2048	2044	2050	2044	
3483	0	2048	2053	2041	2040	
3484	0	2049	2044	2050	2049	
3485	0	2048	2045	2039	2039	
3486	0	2047	2048	2050	2048	
3487	0	2047	2045	2047	2051	
3488	0	2046	2049	2049	2040	
3489	0	2050	2055	2040	2050	
3490	0	2053	2047	2054	2050	
3491	0	2052	2055	2054	2052	
3492	0	2053	2048	2053	2054	
3493	0	2053	2053	2051	2045	
3494	0	2053	2051	2056	2057	
3495	0	2049	2046	2050	2041	
3496	0	2047	2050	2050	2052	
3497	0	2049	2050	2043	2048	
3498	0	2052	2049	2048	2042	
3499	0	2050	2055	2047	2057	
3500	0	2050	2043	2054	2043	
3501	0	2047	2048	2039	2051	
3502	0	2050	2047	2046	2038	
3503	0	2047	2049	2046	2052	
3504	0	2046	2053	2045	2038	
3505	0	2048	2046	2051	2046	
3506	0	2050	2056	2048	2039	
3507	0	2047	2044	2050	2047	
3508	0	2049	2050	2038	2055	
3509	0	2051	2044	2050	2041	
3510	0	2052	2049	2046	2054	
3511	0	2048	2055	2056	2042	
3512	0	2051	2050	2043	2054	
3513	0	2052	2055	2051	2044	
3514	0	2049	2047	2046	2051	
3515	0	2050	2049	2053	2050	
3516	0	2048	2050	2045	2050	
3517	0	2051	2048	2054	2054	
3518	0	2055	2054	2049	2048	
3519	0	2050	2045	2044	2059	
3520	0	2044	2051	2052	2041	
3521	0	2048	2043	2049	2054	
3522	0	2046	2050	2041	2043	
3523	0	2047	2043	2047	2049	
3524	0	2047	2050	2048	2035	
3525	0	2051	2045	2050	2049	
3526	0	2049	2052	2047	2044	
3527	0	2050	2049	2048	2041	
3528	0	2048	2052	2044	2049	
3529	0	2052	2050	2049	2039	
3530	0	2053	2049	2048	2057	
3531	0	2052	2052	2036	2045	
3532	0	2053	2045	2053	2055	
3533	0	2052	2052	2052	2045	
3534	0	2050	2047	2044	2051	
3535	0	2051	2051	2052	2053	
3536	0	2051	2046	2050	2051	
3537	0	2049	2052	2042	2044	
3538	0	2052	2048	2050	2054	
3539	0	2051	2051	2051	2042	
3540	0	2048	2045	2049	2055	
3541	0	2048	2049	2048	2043	
3542	0	2046	2047	2045	2052	
3543	0	2047	2048	2051	2039	
3544	0	2047	2047	2047	2051	
3545	0	2044	2047	2052	2040	
3546	0	2046	2053	2054	2050	
3547	0	2046	2044	2040	2040	
3548	0	2051	2051	2056	2057	
3549	0	2053	2049	2050	2047	
3550	0	2053	2051	2058	2057	
3551	0	2053	2045	2044	2056	
3552	0	2056	2050	2053	2050	
3553	0	2054	2049	2053	2056	
3554	0	2053	2052	2047	2054	
3555	0	2051	2051	2058	2058	
3556	0	2056	2050	2056	2054	
3557	0	2056	2049	2047	2060	
3558	0	2053	2047	2053	2049	
3559	0	2050	2051	2051	2061	
3560	0	2048	2045	2047	2047	
3561	0	2051	2048	2046	2049	
3562	0	2045	2042	2053	2061	
3563	0	2044	2045	2051	2043	
3564	0	2048	2048	2042	2047	
3565	0	2047	2046	2048	2045	
3566	0	2048	2051	2049	2039	
3567	0	2049	2048	2054	2050	
3568	0	2050	2049	2040	2036	
3569	0	2051	2049	2046	2046	
3570	0	2049	2052	2040	2039	
3571	0	2050	2052	2038	2037	
3572	0	2047	2050	2038	2047	
3573	0	2046	2055	2038	2033	
3574	0	2044	2046	2044	2045	
3575	0	2045	2049	2023	2039	
3576	0	2044	2048	2037	2043	
3577	0	2044	2050	2043	2045	
3578	0	2045	2047	2029	2046	
3579	0	2045	2045	2043	2049	
3580	0	2045	2054	2037	2037	
3581	0	2042	2046	2044	2046	
3582	0	2044	2052	2047	2037	
3583	0	2042	2044	2046	2051	
3584	0	2043	2048	2050	2035	
3585	0	2054	2047	2040	2052	
3586	0	2047	2046	2052	2037	
3587	0	2055	2053	2055	2052	
3588	0	2054	2049	2046	2047	
3589	0	2052	2055	2055	2052	
3590	0	2052	2049	2052	2050	
3591	0	2054	2054	2044	2055	
3592	0	2053	2052	2058	2042	
3593	0	2055	2053	2055	2061	
3594	0	2050	2048	2046	2041	
3595	0	2048	2051	2056	2059	
3596	0	2049	2048	2051	2046	
3597	0	2049	2051	2053	2061	
3598	0	2047	2045	2055	2043	
3599	0	2053	2052	2051	2058	
3600	0	2048	2047	2052	2045	
3601	0	2047	2048	2041	2054	
3602	0	2052	2045	2051	2046	
3603	0	2046	2047	2048	2044	
3604	0	2046	2045	2051	2055	
3605	0	2047	2047	2041	2038	
3606	0	2049	2050	2051	2052	
3607	0	2049	2046	2052	2047	
3608	0	2050	2052	2045	2056	
3609	0	2052	2044	2050	2037	
3610	0	2050	2051	2053	2054	
3611	0	2051	2047	2052	2041	
3612	0	2056	2051	2046	2056	
3613	0	2049	2048	2050	2042	
3614	0	2051	2052	2047	2056	
3615	0	2052	2048	2045	2046	
3616	0	2050	2046	2048	2053	
3617	0	2049	2053	2052	2045	
3618	0	2047	2051	2059	2049	
3619	0	2053	2052	2043	2042	
3620	0	2049	2046	2052	2040	
3621	0	2052	2053	2049	2053	
3622	0	2047	2044	2042	2040	
3623	0	2046	2053	2052	2050	
3624	0	2047	2044	2058	2039	
3625	0	2048	2052	2038	2053	
3626	0	2047	2046	2050	2041	
3627	0	2047	2054	2048	2053	
3628	0	2051	2049	2040	2045	
3629	0	2050	2053	2049	2055	
3630	0	2055	2048	2045	2038	
3631	0	2051	2053	2052	2056	
3632	0	2048	2052	2044	2043	
3633	0	2047	2052	2048	2051	
3634	0	2048	2053	2049	2055	
3635	0	2051	2041	2052	2045	
3636	0	2052	2048	2045	2053	
3637	0	2047	2054	2049	2049	
3638	0	2050	2046	2050	2043	
3639	0	2046	2053	2040	2061	
3640	0	2048	2050	2048	2044	
3641	0	2049	2048	2044	2051	
3642	0	2048	2042	2047	2036	
3643	0	2049	2045	2049	2050	
3644	0	2046	2047	2045	2035	
3645	0	2045	2051	2048	2047	
3646	0	2044	2048	2041	2035	
3647	0	2049	2045	2055	2047	
3648	0	2049	2052	2054	2048	
3649	0	2049	2048	2048	2045	
3650	0	2050	2052	2052	2056	
3651	0	2054	2053	2054	2045	
3652	0	2052	2045	2049	2054	
3653	0	2055	2054	2046	2042	
3654	0	2054	2045	2050	2052	
3655	0	2048	2051	2053	2054	
3656	0	2050	2051	2049	2046	
3657	0	2053	2045	2049	2055	
3658	0	2052	2053	2049	2042	
3659	0	2048	2044	2049	2054	
3660	0	2050	2055	2048	2041	
3661	0	2049	2046	2038	2052	
3662	0	2051	2047	2052	2039	
3663	0	2048	2046	2044	2047	
3664	0	2047	2046	2052	2041	
3665	0	2048	2053	2035	2045	
3666	0	2051	2044	2043	2052	
3667	0	2047	2049	2054	2039	
3668	0	2048	2052	2049	2049	
3669	0	2053	2048	2053	2046	
3670	0	2049	2056	2044	2052	
3671	0	2052	2047	2051	2054	
3672	0	2053	2051	2052	2047	
3673	0	2052	2048	2054	2058	
3674	0	2049	2048	2045	2046	
3675	0	2051	2050	2054	2059	
3676	0	2050	2047	2052	2044	
3677	0	2050	2051	2049	2053	
3678	0	2049	2044	2040	2042	
3679	0	2049	2049	2052	2051	
3680	0	2047	2046	2048	2045	
3681	0	2046	2046	2054	2041	
3682	0	2047	2050	2040	2051	
3683	0	2044	2044	2048	2041	
3684	0	2046	2049	2050	2053	
3685	0	2047	2048	2050	2040	
3686	0	2045	2050	2040	2047	
3687	0	2045	2051	2043	2044	
3688	0	2048	2046	2050	2037	
3689	0	2051	2050	2049	2052	
3690	0	2054	2045	2048	2044	
3691	0	2052	2049	2040	2055	
3692	0	2050	2048	2056	2050	
3693	0	2053	2054	2053	2049	
3694	0	2049	2051	2040	2054	
3695	0	2049	2046	2052	2045	
3696	0	2053	2052	2056	2055	
3697	0	2053	2054	2046	2051	
3698	0	2050	2047	2055	2041	
3699	0	2047	2053	2040	2053	
3700	0	2050	2046	2047	2040	
3701	0	2051	2048	2050	2049	
3702	0	2045	2053	2048	2046	
3703	0	2044	2048	2050	2040	
3704	0	2049	2050	2042	2051	
3705	0	2050	2047	2048	2044	
3706	0	2046	2046	2047	2036	
3707	0	2048	2050	2050	2052	
3708	0	2051	2048	2055	2050	
3709	0	2052	2046	2041	2045	
3710	0	2051	2049	2050	2055	
3711	0	2048	2042	2047	2044	
3712	0	2046	2047	2047	2044	
3713	0	2051	2050	2052	2058	
3714	0	2051	2043	2053	2043	
3715	0	2052	2049	2043	2049	
3716	0	2050	2051	2049	2059	
3717	0	2052	2047	2053	2044	
3718	0	2048	2052	2052	2055	
3719	0	2049	2051	2036	2039	
3720	0	2051	2042	2046	2050	
3721	0	2048	2051	2048	2049	
3722	0	2050	2046	2050	2041	
3723	0	2046	2048	2046	2048	
3724	0	2047	2050	2041	2038	
3725	0	2042	2050	2050	2039	
3726	0	2044	2050	2052	2053	
3727	0	2049	2046	2052	2038	
3728	0	2051	2049	2038	2050	
3729	0	2049	2050	2052	2050	
3730	0	2049	2047	2048	2047	
3731	0	2051	2054	2056	2056	
3732	0	2050	2052	2052	2047	
3733	0	2053	2043	2043	2047	
3734	0	2051	2049	2056	2053	
3735	0	2055	2045	2052	2044	
3736	0	2052	2052	2043	2056	
3737	0	2050	2045	2050	2040	
3738	0	2049	2047	2048	2060	
3739	0	2048	2053	2047	2044	
3740	0	2050	2040	2044	2052	
3741	0	2047	2047	2047	2056	
3742	0	2048	2048	2048	2040	
3743	0	2048	2044	2046	2051	
3744	0	2047	2052	2035	2037	
3745	0	2046	2048	2049	2048	
3746	0	2045	2050	2050	2045	
3747	0	2049	2048	2047	2042	
3748	0	2047	2046	2053	2055	
3749	0	2047	2052	2041	2041	
3750	0	2047	2047	2053	2044	
3751	0	2053	2050	2054	2055	
3752	0	2047	2051	2046	2046	
3753	0	2053	2050	2055	2059	
3754	0	2051	2056	2048	2044	
3755	0	2051	2046	2048	2052	
3756	0	2050	2053	2048	2041	
3757	0	2048	2048	2045	2056	
3758	0	2051	2055	2043	2041	
3759	0	2051	2044	2049	2052	
3760	0	2048	2050	2043	2043	
3761	0	2050	2046	2049	2049	
3762	0	2046	2046	2048	2039	
3763	0	2046	2051	2054	2036	
3764	0	2046	2054	2050	2038	
3765	0	2047	2054	2051	2042	
3766	0	2050	2053	2051	2041	
3767	0	2047	2049	2049	2045	
3768	0	2051	2047	2052	2050	
3769	0	2050	2045	2047	2047	
3770	0	2051	2053	2045	2048	
3771	0	2051	2047	2051	2053	
3772	0	2053	2052	2054	2042	
3773	0	2050	2047	2052	2054	
3774	0	2046	2049	2042	2048	
3775	0	2050	2055	2050	2046	
3776	0	2047	2046	2049	2058	
3777	0	2051	2047	2048	2046	
3778	0	2048	2049	2050	2052	
3779	0	2049	2043	2040	2054	
3780	0	2048	2050	2050	2041	
3781	0	2050	2045	2045	2053	
3782	0	2047	2047	2046	2042	
3783	0	2047	2048	2043	2044	
3784	0	2047	2053	2052	2052	
3785	0	2046	2054	2050	2039	
3786	0	2052	2046	2048	2054	
3787	0	2051	2051	2042	2036	
3788	0	2053	2049	2049	2048	
3789	0	2050	2051	2046	2053	
3790	0	2051	2052	2054	2038	
3791	0	2048	2044	2042	2050	
3792	0	2052	2050	2049	2049	
3793	0	2051	2051	2049	2045	
3794	0	2052	2047	2048	2056	
3795	0	2051	2051	2045	2054	
3796	0	2054	2051	2049	2040	
3797	0	2051	2051	2053	2052	
3798	0	2050	2053	2046	2052	
3799	0	2045	2045	2056	2041	
3800	0	2046	2046	2041	2053	
3801	0	2047	2049	2041	2052	
3802	0	2046	2043	2051	2037	
3803	0	2048	2050	2052	2052	
3804	0	2049	2051	2045	2045	
3805	0	2047	2040	2049	2041	
3806	0	2043	2045	2050	2054	
3807	0	2048	2045	2046	2042	
3808	0	2050	2046	2049	2040	
3809	0	2051	2052	2041	2052	
3810	0	2051	2051	2052	2049	
3811	0	2051	2047	2043	2046	
3812	0	2049	2052	2050	2057	
3813	0	2053	2050	2045	2037	
3814	0	2052	2056	2051	2051	
3815	0	2054	2049	2050	2048	
3816	0	2051	2050	2045	2046	
3817	0	2046	2049	2047	2057	
3818	0	2047	2047	2048	2046	
3819	0	2050	2053	2050	2043	
3820	0	2048	2046	2047	2049	
3821	0	2047	2049	2040	2057	
3822	0	2048	2053	2049	2038	
3823	0	2049	2047	2048	2045	
3824	0	2050	2048	2055	2054	
3825	0	2045	2044	2041	2040	
3826	0	2049	2048	2043	2037	
3827	0	2047	2053	2053	2051	
3828	0	2049	2044	2045	2044	
3829	0	2051	2050	2054	2038	
3830	0	2054	2052	2043	2056	
3831	0	2055	2046	2055	2046	
3832	0	2053	2049	2052	2047	
3833	0	2053	2045	2051	2059	
3834	0	2047	2047	2051	2044	
3835	0	2048	2055	2037	2048	
3836	0	2052	2047	2048	2056	
3837	0	2052	2054	2052	2042	
3838	0	2051	2053	2047	2052	
3839	0	2047	2049	2048	2055	
3840	0	2048	2052	2038	2044	
3841	0	2049	2048	2048	2051	
3842	0	2049	2048	2046	2051	
3843	0	2046	2049	2046	2037	
3844	0	2047	2043	2047	2053	
3845	0	2045	2046	2038	2044	
3846	0	2045	2051	2047	2039	
3847	0	2046	2045	2047	2052	
3848	0	2049	2048	2051	2048	
3849	0	2051	2054	2050	2035	
3850	0	2055	2049	2045	2051	
3851	0	2053	2050	2051	2049	
3852	0	2055	2050	2053	2046	
3853	0	2050	2049	2053	2056	
3854	0	2051	2052	2050	2045	
3855	0	2051	2044	2052	2050	
3856	0	2052	2050	2053	2056	
3857	0	2050	2051	2041	2044	
3858	0	2050	2046	2050	2052	
3859	0	2051	2052	2048	2039	
3860	0	2049	2044	2048	2048	
3861	0	2045	2051	2047	2043	
3862	0	2045	2044	2051	2042	
3863	0	2042	2052	2048	2052	
3864	0	2044	2048	2036	2035	
3865	0	2050	2050	2047	2038	
3866	0	2047	2050	2044	2053	
3867	0	2049	2048	2052	2038	
3868	0	2046	2053	2038	2055	
3869	0	2047	2047	2049	2058	
3870	0	2053	2054	2042	2041	
3871	0	2052	2048	2051	2056	
3872	0	2050	2048	2040	2041	
3873	0	2051	2056	2051	2052	
3874	0	2052	2045	2050	2053	
3875	0	2050	2049	2058	2046	
3876	0	2048	2048	2042	2060	
3877	0	2052	2046	2049	2043	
3878	0	2049	2050	2052	2053	
3879	0	2048	2049	2045	2038	
3880	0	2052	2051	2052	2052	
3881	0	2050	2046	2045	2044	
3882	0	2046	2052	2040	2052	
3883	0	2047	2045	2047	2046	
3884	0	2046	2052	2048	2041	
3885	0	2049	2043	2046	2052	
3886	0	2047	2049	2040	2038	
3887	0	2048	2048	2050	2048	
3888	0	2051	2049	2049	2053	
3889	0	2047	2048	2045	2044	
3890	0	2048	2047	2051	2057	
3891	0	2051	2051	2052	2042	
3892	0	2053	2043	2058	2056	
3893	0	2053	2050	2043	2049	
3894	0	2057	2043	2052	2045	
3895	0	2051	2053	2050	2052	
3896	0	2052	2048	2049	2042	
3897	0	2052	2054	2046	2056	
3898	0	2049	2048	2047	2042	
3899	0	2050	2046	2055	2053	
3900	0	2046	2054	2039	2040	
3901	0	2047	2045	2047	2046	
3902	0	2049	2050	2044	2047	
3903	0	2051	2042	2045	2046	
3904	0	2050	2053	2049	2052	
3905	0	2046	2047	2050	2038	
3906	0	2045	2048	2047	2053	
3907	0	2051	2050	2040	2042	
3908	0	2050	2045	2050	2047	
3909	0	2054	2055	2049	2052	
3910	0	2048	2048	2052	2042	
3911	0	2053	2055	2044	2061	
3912	0	2052	2047	2054	2047	
3913	0	2049	2052	2051	2048	
3914	0	2048	2045	2052	2053	
3915	0	2052	2050	2052	2041	
3916	0	2049	2052	2051	2053	
3917	0	2051	2046	2046	2052	
3918	0	2049	2053	2041	2045	
3919	0	2047	2048	2053	2054	
3920	0	2051	2046	2047	2037	
3921	0	2050	2054	2050	2048	
3922	0	2047	2046	2039	2048	
3923	0	2050	2052	2051	2041	
3924	0	2049	2049	2047	2046	
3925	0	2045	2051	2048	2046	
3926	0	2050	2050	2040	2043	
3927	0	2052	2045	2048	2054	
3928	0	2050	2052	2047	2041	
3929	0	2051	2045	2051	2054	
3930	0	2055	2051	2050	2041	
3931	0	2053	2048	2053	2048	
3932	0	2052	2050	2054	2051	
3933	0	2049	2049	2041	2047	
3934	0	2051	2049	2050	2062	
3935	0	2045	2051	2048	2043	
3936	0	2049	2053	2050	2040	
3937	0	2050	2053	2054	2044	
3938	0	2046	2046	2052	2042	
3939	0	2047	2046	2053	2045	
3940	0	2045	2047	2050	2042	
3941	0	2046	2047	2048	2039	
3942	0	2050	2043	2046	2039	
3943	0	2044	2040	2050	2041	
3944	0	2047	2043	2047	2046	
3945	0	2047	2044	2047	2052	
3946	0	2048	2049	2047	2036	
3947	0	2051	2047	2042	2046	
3948	0	2049	2051	2041	2041	
3949	0	2048	2046	2056	2044	
3950	0	2055	2051	2048	2056	
3951	0	2058	2050	2053	2041	
3952	0	2051	2053	2040	2053	
3953	0	2053	2052	2053	2058	
3954	0	2055	2053	2049	2045	
3955	0	2053	2044	2050	2051	
3956	0	2049	2052	2051	2054	
3957	0	2049	2045	2042	2042	
3958	0	2048	2044	2052	2054	
3959	0	2049	2049	2048	2047	
3960	0	2046	2046	2052	2046	
3961	0	2046	2051	2044	2057	
3962	0	2048	2048	2039	2039	
3963	0	2045	2046	2049	2046	
3964	0	2047	2053	2047	2047	
3965	0	2044	2045	2047	2041	
3966	0	2046	2045	2042	2050	
3967	0	2049	2048	2053	2046	
3968	0	2048	2048	2055	2045	
3969	0	2051	2054	2042	2056	
3970	0	2049	2046	2053	2043	
3971	0	2049	2051	2048	2052	
3972	0	2050	2051	2049	2054	
3973	0	2049	2048	2044	2044	
3974	0	2053	2054	2047	2058	
3975	0	2054	2048	2052	2046	
3976	0	2053	2048	2055	2053	
3977	0	2047	2050	2042	2056	
3978	0	2052	2045	2046	2045	
3979	0	2047	2054	2047	2055	
3980	0	2050	2045	2052	2039	
3981	0	2051	2049	2038	2046	
3982	0	2050	2044	2051	2040	
3983	0	2047	2049	2044	2042	
3984	0	2050	2050	2047	2046	
3985	0	2045	2042	2045	2037	
3986	0	2050	2048	2052	2052	
3987	0	2051	2040	2048	2038	
3988	0	2050	2050	2053	2052	
3989	0	2048	2050	2043	2049	
3990	0	2050	2046	2053	2045	
3991	0	2051	2051	2050	2058	
3992	0	2051	2046	2050	2042	
3993	0	2049	2051	2046	2052	
3994	0	2054	2055	2052	2052	
3995	0	2048	2043	2050	2045	
3996	0	2050	2050	2043	2056	
3997	0	2051	2050	2050	2041	
3998	0	2048	2047	2050	2052	
3999	0	2052	2051	2051	2057	
4000	0	2049	2044	2038	2041	
4001	0	2048	2052	2049	2052	
4002	0	2049	2047	2042	2040	
4003	0	2047	2049	2051	2047	
4004	0	2049	2052	2035	2050	
4005	0	2048	2044	2047	2034	
4006	0	2047	2046	2049	2049	
4007	0	2047	2049	2050	2040	
4008	0	2049	2046	2037	2045	
4009	0	2047	2051	2050	2054	
4010	0	2048	2046	2052	2043	
4011	0	2051	2050	2054	2054	
4012	0	2052	2048	2042	2042	
4013	0	2051	2050	2055	2059	
4014	0	2051	2052	2053	2042	
4015	0	2050	2047	2042	2054	
4016	0	2047	2054	2057	2048	
4017	0	2050	2045	2049	2049	
4018	0	2050	2051	2035	2049	
4019	0	2050	2047	2048	2045	
4020	0	2051	2050	2049	2054	
4021	0	2050	2043	2052	2041	
4022	0	2049	2051	2043	2051	
4023	0	2044	2049	2050	2035	
4024	0	2045	2052	2046	2050	
4025	0	2050	2045	2044	2036	
4026	0	2051	2044	2049	2052	
4027	0	2051	2047	2045	2038	
4028	0	2048	2053	2054	2051	
4029	0	2050	2056	2041	2042	
4030	0	2053	2046	2055	2050	
4031	0	2053	2050	2053	2056	
4032	0	2052	2051	2049	2044	
4033	0	2049	2049	2051	2054	
4034	0	2053	2056	2041	2049	
4035	0	2052	2047	2052	2047	
4036	0	2051	2052	2051	2054	
4037	0	2051	2048	2052	2046	
4038	0	2047	2045	2039	2054	
4039	0	2046	2053	2047	2040	
4040	0	2045	2048	2047	2051	
4041	0	2046	2050	2049	2043	
4042	0	2046	2045	2037	2042	
4043	0	2045	2047	2048	2053	
4044	0	2050	2054	2049	2036	
4045	0	2050	2044	2049	2050	
4046	0	2047	2044	2055	2045	
4047	0	2049	2046	2038	2046	
4048	0	2052	2046	2051	2057	
4049	0	2049	2052	2055	2045	
4050	0	2049	2045	2050	2055	
4051	0	2050	2047	2054	2042	
4052	0	2054	2050	2040	2048	
4053	0	2055	2051	2054	2042	
4054	0	2054	2054	2049	2045	
4055	0	2053	2047	2056	2054	
4056	0	2050	2051	2042	2042	
4057	0	2053	2049	2052	2053	
4058	0	2054	2046	2051	2052	
4059	0	2047	2049	2047	2041	
4060	0	2047	2046	2055	2050	
4061	0	2046	2044	2046	2052	
4062	0	2046	2049	2038	2036	
4063	0	2047	2055	2045	2047	
4064	0	2049	2046	2049	2045	
4065	0	2049	2049	2047	2036	
4066	0	2050	2047	2047	2051	
4067	0	2048	2042	2038	2046	
4068	0	2048	2056	2051	2041	
4069	0	2050	2046	2048	2056	
4070	0	2052	2051	2058	2043	
4071	0	2052	2048	2042	2057	
4072	0	2050	2051	2050	2046	
4073	0	2052	2055	2052	2045	
4074	0	2052	2048	2052	2060	
4075	0	2048	2049	2049	2039	
4076	0	2051	2053	2043	2051	
4077	0	2049	2046	2050	2051	
4078	0	2049	2052	2048	2044	
4079	0	2046	2046	2051	2053	
4080	0	2047	2051	2038	2044	
4081	0	2048	2054	2049	2039	
4082	0	2047	2046	2046	2055	
4083	0	2052	2048	2052	2040	
4084	0	2043	2046	2042	2046	
4085	0	2045	2045	2040	2049	
4086	0	2044	2053	2049	2042	
4087	0	2048	2044	2046	2057	
4088	0	2049	2050	2053	2039	
4089	0	2051	2049	2044	2052	
4090	0	2053	2049	2050	2044	
4091	0	2050	2052	2051	2046	
4092	0	2050	2044	2051	2055	
4093	0	2053	2046	2055	2042	
4094	0	2051	2052	2039	2056	
4095	0	2051	2049	2048	2046	
4096	0	2050	2055	2045	2043	
4097	0	2049	2043	2053	2053	
4098	0	2048	2049	2041	2035	
4099	0	2048	2049	2053	2049	
4100	0	2047	2044	2044	2055	
4101	0	2049	2053	2044	2046	
4102	0	2047	2046	2042	2051	
4103	0	2048	2050	2050	2041	
4104	0	2048	2047	2051	2043	
4105	0	2046	2043	2047	2056	
4106	0	2046	2056	2042	2037	
4107	0	2051	2043	2049	2051	
4108	0	2054	2051	2051	2039	
4109	0	2050	2047	2048	2042	
4110	0	2051	2049	2055	2055	
4111	0	2054	2051	2049	2040	
4112	0	2052	2046	2042	2055	
4113	0	2054	2052	2051	2055	
4114	0	2051	2051	2046	2045	
4115	0	2051	2048	2050	2056	
4116	0	2048	2048	2047	2040	
4117	0	2048	2049	2054	2051	
4118	0	2050	2054	2050	2046	
4119	0	2051	2042	2048	2041	
4120	0	2052	2048	2051	2052	
4121	0	2050	2048	2053	2037	
4122	0	2048	2047	2048	2047	
4123	0	2047	2050	2041	2038	
4124	0	2045	2043	2048	2047	
4125	0	2046	2052	2051	2050	
4126	0	2050	2044	2053	2039	
4127	0	2049	2049	2041	2055	
4128	0	2050	2044	2051	2040	
4129	0	2050	2050	2050	2055	
4130	0	2055	2049	2055	2044	
4131	0	2050	2050	2040	2050	
4132	0	2051	2049	2052	2054	
4133	0	2050	2050	2053	2044	
4134	0	2052	2051	2038	2056	
4135	0	2053	2045	2047	2049	
4136	0	2051	2048	2051	2045	
4137	0	2052	2046	2052	2056	
4138	0	2052	2054	2044	2044	
4139	0	2050	2055	2050	2051	
4140	0	2048	2048	2048	2053	
4141	0	2048	2050	2053	2042	
4142	0	2049	2046	2043	2053	
4143	0	2047	2047	2051	2039	
4144	0	2047	2050	2047	2050	
4145	0	2047	2048	2043	2041	
4146	0	2045	2055	2047	2046	
4147	0	2048	2040	2052	2052	
4148	0	2051	2051	2054	2040	
4149	0	2048	2050	2039	2055	
4150	0	2046	2053	2052	2037	
4151	0	2049	2055	2054	2054	
4152	0	2048	2048	2050	2054	
4153	0	2050	2051	2046	2050	
