# OpenSignals Text File Format
# {"00:07:80:3B:46:6F": {"sensor": ["EMG", "EMG", "EMG", "EMG"], "device name": "00:07:80:3B:46:6F", "column": ["nSeq", "DI", "Direito Multi", "Esquerdo Multi", "Direito ES", "Esquerdo ES"], "sync interval": 2, "time": "12:47:35.709", "comments": "", "device connection": "BTH00:07:80:3B:46:6F", "channels": [1, 2, 3, 4], "date": "2016-9-26", "mode": 0, "digital IO": [0, 1], "firmware version": 514, "device": "bioplux", "position": 0, "sampling rate": 1000, "label": ["Direito Multi", "Esquerdo Multi", "Direito ES", "Esquerdo ES"], "resolution": [12, 12, 12, 12], "special": [{}, {}, {}, {}]}}
# EndOfHeader
0	0	2044	2047	2039	2049	
1	0	2043	2044	2044	2036	
2	0	2042	2052	2047	2052	
3	0	2039	2046	2043	2050	
4	0	2043	2043	2040	2038	
5	0	2045	2044	2045	2038	
6	0	2047	2047	2045	2045	
7	0	2051	2046	2052	2043	
8	0	2050	2050	2046	2042	
9	0	2054	2048	2056	2047	
10	0	2056	2048	2051	2046	
11	0	2056	2051	2053	2044	
12	0	2058	2052	2055	2040	
13	0	2060	2050	2052	2040	
14	0	2057	2052	2043	2043	
15	0	2054	2057	2053	2044	
16	0	2048	2051	2049	2043	
17	0	2043	2048	2049	2042	
18	0	2047	2054	2048	2035	
19	0	2043	2052	2043	2037	
20	0	2043	2049	2047	2042	
21	0	2043	2044	2040	2039	
22	0	2044	2042	2045	2036	
23	0	2044	2042	2046	2039	
24	0	2046	2047	2049	2038	
25	0	2051	2044	2042	2034	
26	0	2049	2046	2052	2042	
27	0	2049	2047	2042	2043	
28	0	2053	2049	2053	2055	
29	0	2052	2049	2042	2057	
30	0	2056	2053	2052	2056	
31	0	2055	2053	2039	2058	
32	0	2052	2051	2038	2050	
33	0	2050	2050	2028	2047	
34	0	2051	2046	2041	2042	
35	0	2051	2044	2034	2045	
36	0	2054	2047	2041	2045	
37	0	2049	2048	2039	2051	
38	0	2044	2047	2046	2055	
39	0	2047	2047	2054	2048	
40	0	2048	2045	2053	2045	
41	0	2048	2044	2056	2038	
42	0	2044	2048	2058	2038	
43	0	2047	2043	2053	2041	
44	0	2046	2043	2043	2051	
45	0	2048	2045	2056	2055	
46	0	2047	2046	2041	2052	
47	0	2049	2047	2049	2043	
48	0	2052	2047	2044	2043	
49	0	2054	2050	2054	2038	
50	0	2052	2046	2045	2045	
51	0	2056	2053	2045	2052	
52	0	2055	2052	2043	2059	
53	0	2053	2053	2046	2056	
54	0	2055	2052	2040	2053	
55	0	2052	2051	2046	2050	
56	0	2051	2052	2038	2042	
57	0	2047	2046	2044	2047	
58	0	2043	2048	2041	2044	
59	0	2041	2048	2049	2048	
60	0	2040	2047	2035	2053	
61	0	2047	2051	2043	2051	
62	0	2043	2054	2042	2044	
63	0	2044	2050	2046	2041	
64	0	2046	2049	2040	2042	
65	0	2048	2048	2049	2044	
66	0	2048	2049	2042	2041	
67	0	2051	2046	2049	2044	
68	0	2048	2044	2047	2046	
69	0	2055	2047	2056	2046	
70	0	2054	2048	2053	2042	
71	0	2052	2051	2045	2051	
72	0	2050	2048	2046	2055	
73	0	2053	2046	2053	2057	
74	0	2056	2049	2052	2057	
75	0	2054	2047	2052	2049	
76	0	2048	2051	2050	2052	
77	0	2045	2049	2046	2048	
78	0	2046	2049	2050	2045	
79	0	2046	2051	2047	2038	
80	0	2042	2050	2048	2038	
81	0	2045	2050	2050	2040	
82	0	2042	2050	2049	2048	
83	0	2046	2047	2048	2050	
84	0	2046	2050	2052	2051	
85	0	2047	2052	2052	2052	
86	0	2053	2051	2048	2051	
87	0	2054	2054	2050	2044	
88	0	2049	2050	2044	2047	
89	0	2054	2050	2056	2044	
90	0	2058	2064	2051	2036	
91	0	2056	2066	2058	2044	
92	0	2058	2060	2048	2056	
93	0	2058	2058	2053	2055	
94	0	2054	2055	2044	2055	
95	0	2050	2055	2051	2053	
96	0	2047	2052	2049	2053	
97	0	2051	2054	2052	2044	
98	0	2047	2051	2044	2040	
99	0	2045	2044	2046	2039	
100	0	2040	2041	2035	2038	
101	0	2042	2042	2040	2035	
102	0	2045	2044	2033	2037	
103	0	2044	2041	2043	2042	
104	0	2049	2044	2042	2046	
105	0	2050	2046	2045	2051	
106	0	2044	2047	2042	2045	
107	0	2047	2051	2051	2044	
108	0	2054	2052	2048	2048	
109	0	2054	2054	2050	2055	
110	0	2058	2054	2055	2055	
111	0	2056	2054	2058	2057	
112	0	2056	2057	2053	2059	
113	0	2054	2056	2055	2056	
114	0	2056	2055	2051	2055	
115	0	2051	2046	2054	2052	
116	0	2046	2046	2049	2051	
117	0	2043	2044	2054	2042	
118	0	2047	2041	2047	2037	
119	0	2042	2039	2047	2039	
120	0	2040	2041	2045	2039	
121	0	2044	2047	2051	2037	
122	0	2048	2044	2047	2045	
123	0	2047	2043	2045	2059	
124	0	2046	2051	2041	2050	
125	0	2050	2051	2045	2053	
126	0	2049	2049	2043	2047	
127	0	2049	2051	2052	2051	
128	0	2050	2053	2054	2057	
129	0	2056	2056	2055	2049	
130	0	2057	2056	2052	2052	
131	0	2057	2050	2051	2052	
132	0	2056	2050	2056	2051	
133	0	2055	2052	2051	2045	
134	0	2053	2050	2057	2041	
135	0	2052	2050	2047	2042	
136	0	2048	2048	2052	2043	
137	0	2043	2047	2039	2042	
138	0	2039	2048	2044	2040	
139	0	2040	2049	2047	2038	
140	0	2041	2048	2044	2041	
141	0	2045	2054	2048	2041	
142	0	2050	2053	2052	2044	
143	0	2048	2047	2053	2050	
144	0	2052	2048	2051	2049	
145	0	2052	2050	2050	2051	
146	0	2050	2049	2051	2050	
147	0	2050	2052	2053	2050	
148	0	2054	2047	2058	2054	
149	0	2058	2046	2058	2053	
150	0	2056	2045	2053	2047	
151	0	2057	2046	2050	2047	
152	0	2059	2050	2038	2051	
153	0	2053	2052	2045	2049	
154	0	2051	2050	2037	2046	
155	0	2047	2052	2049	2044	
156	0	2045	2050	2038	2041	
157	0	2043	2046	2050	2045	
158	0	2044	2043	2052	2049	
159	0	2044	2046	2051	2041	
160	0	2045	2042	2043	2034	
161	0	2044	2046	2037	2037	
162	0	2043	2053	2045	2036	
163	0	2043	2049	2036	2038	
164	0	2048	2052	2043	2034	
165	0	2048	2052	2048	2035	
166	0	2050	2048	2054	2034	
167	0	2050	2046	2053	2044	
168	0	2048	2049	2052	2043	
169	0	2055	2051	2050	2042	
170	0	2052	2051	2049	2049	
171	0	2055	2050	2049	2056	
172	0	2058	2054	2044	2055	
173	0	2060	2052	2055	2060	
174	0	2056	2049	2043	2062	
175	0	2054	2048	2051	2058	
176	0	2048	2051	2039	2052	
177	0	2046	2050	2047	2048	
178	0	2046	2047	2038	2050	
179	0	2047	2046	2045	2045	
180	0	2043	2052	2040	2041	
181	0	2043	2047	2048	2038	
182	0	2042	2044	2047	2041	
183	0	2042	2045	2051	2046	
184	0	2047	2047	2053	2045	
185	0	2051	2047	2045	2050	
186	0	2048	2050	2048	2054	
187	0	2049	2044	2055	2055	
188	0	2051	2046	2052	2062	
189	0	2055	2049	2048	2060	
190	0	2056	2055	2042	2056	
191	0	2055	2060	2052	2053	
192	0	2054	2050	2055	2047	
193	0	2053	2050	2044	2043	
194	0	2050	2051	2048	2044	
195	0	2054	2047	2047	2043	
196	0	2051	2050	2053	2046	
197	0	2044	2047	2049	2044	
198	0	2045	2046	2047	2049	
199	0	2042	2044	2053	2037	
200	0	2042	2056	2050	2042	
201	0	2044	2048	2040	2037	
202	0	2043	2047	2040	2040	
203	0	2043	2052	2046	2046	
204	0	2048	2046	2047	2043	
205	0	2050	2050	2047	2046	
206	0	2050	2051	2049	2043	
207	0	2051	2049	2043	2048	
208	0	2056	2052	2045	2044	
209	0	2055	2053	2050	2052	
210	0	2056	2047	2052	2047	
211	0	2051	2051	2052	2052	
212	0	2055	2050	2050	2046	
213	0	2054	2049	2044	2056	
214	0	2047	2056	2052	2043	
215	0	2048	2050	2049	2054	
216	0	2053	2050	2049	2042	
217	0	2054	2049	2050	2052	
218	0	2048	2045	2044	2036	
219	0	2041	2047	2048	2054	
220	0	2042	2054	2043	2044	
221	0	2043	2049	2050	2036	
222	0	2048	2044	2049	2052	
223	0	2043	2039	2048	2040	
224	0	2047	2052	2042	2043	
225	0	2051	2051	2045	2048	
226	0	2051	2049	2033	2040	
227	0	2049	2053	2049	2052	
228	0	2050	2048	2051	2044	
229	0	2054	2050	2040	2048	
230	0	2061	2049	2050	2053	
231	0	2057	2056	2058	2056	
232	0	2053	2048	2063	2049	
233	0	2051	2052	2054	2057	
234	0	2051	2045	2054	2041	
235	0	2047	2050	2054	2055	
236	0	2045	2046	2052	2048	
237	0	2041	2043	2036	2054	
238	0	2042	2050	2031	2045	
239	0	2045	2041	2038	2040	
240	0	2046	2053	2044	2047	
241	0	2047	2049	2042	2037	
242	0	2047	2049	2048	2041	
243	0	2048	2048	2040	2041	
244	0	2046	2049	2052	2040	
245	0	2049	2047	2052	2042	
246	0	2051	2051	2045	2050	
247	0	2049	2050	2047	2055	
248	0	2050	2051	2046	2054	
249	0	2056	2054	2048	2049	
250	0	2053	2053	2038	2048	
251	0	2054	2053	2045	2041	
252	0	2054	2058	2048	2040	
253	0	2055	2055	2049	2045	
254	0	2053	2056	2040	2055	
255	0	2053	2056	2052	2058	
256	0	2052	2052	2041	2051	
257	0	2051	2049	2053	2051	
258	0	2045	2050	2043	2050	
259	0	2045	2043	2050	2052	
260	0	2041	2041	2048	2047	
261	0	2040	2043	2051	2040	
262	0	2042	2044	2052	2036	
263	0	2046	2042	2058	2041	
264	0	2051	2045	2056	2040	
265	0	2047	2050	2054	2043	
266	0	2051	2048	2043	2045	
267	0	2049	2048	2037	2053	
268	0	2049	2050	2039	2055	
269	0	2050	2052	2045	2053	
270	0	2052	2051	2049	2050	
271	0	2049	2048	2049	2050	
272	0	2051	2050	2044	2046	
273	0	2051	2053	2050	2044	
274	0	2054	2050	2044	2042	
275	0	2055	2050	2058	2055	
276	0	2059	2051	2059	2058	
277	0	2054	2052	2055	2048	
278	0	2051	2052	2053	2041	
279	0	2045	2049	2041	2041	
280	0	2040	2046	2045	2040	
281	0	2040	2046	2039	2041	
282	0	2043	2045	2044	2050	
283	0	2048	2046	2041	2052	
284	0	2045	2049	2051	2048	
285	0	2043	2047	2042	2044	
286	0	2050	2051	2048	2043	
287	0	2054	2052	2051	2040	
288	0	2049	2052	2048	2043	
289	0	2053	2051	2057	2047	
290	0	2058	2053	2056	2053	
291	0	2057	2055	2052	2056	
292	0	2060	2055	2056	2053	
293	0	2055	2058	2054	2055	
294	0	2050	2056	2048	2046	
295	0	2051	2055	2049	2042	
296	0	2049	2055	2043	2039	
297	0	2047	2050	2044	2041	
298	0	2043	2050	2037	2050	
299	0	2043	2055	2043	2049	
300	0	2045	2047	2035	2052	
301	0	2044	2048	2051	2046	
302	0	2046	2048	2044	2045	
303	0	2052	2051	2051	2039	
304	0	2045	2049	2046	2036	
305	0	2046	2043	2047	2037	
306	0	2051	2047	2047	2048	
307	0	2051	2049	2046	2049	
308	0	2053	2044	2051	2055	
309	0	2052	2046	2051	2061	
310	0	2057	2048	2057	2058	
311	0	2053	2049	2056	2055	
312	0	2052	2052	2056	2058	
313	0	2054	2050	2050	2055	
314	0	2051	2051	2045	2052	
315	0	2050	2053	2050	2050	
316	0	2045	2051	2036	2052	
317	0	2044	2046	2042	2054	
318	0	2047	2050	2035	2051	
319	0	2044	2046	2044	2044	
320	0	2042	2043	2035	2044	
321	0	2047	2040	2045	2043	
322	0	2046	2047	2040	2043	
323	0	2050	2045	2048	2041	
324	0	2050	2047	2052	2043	
325	0	2044	2048	2055	2039	
326	0	2046	2051	2049	2048	
327	0	2045	2048	2053	2055	
328	0	2049	2046	2048	2053	
329	0	2053	2054	2049	2054	
330	0	2058	2056	2049	2055	
331	0	2058	2054	2050	2060	
332	0	2057	2053	2056	2054	
333	0	2053	2055	2052	2048	
334	0	2051	2051	2052	2044	
335	0	2048	2048	2054	2039	
336	0	2053	2046	2055	2042	
337	0	2048	2045	2052	2036	
338	0	2046	2047	2053	2037	
339	0	2043	2046	2047	2048	
340	0	2044	2044	2039	2047	
341	0	2045	2044	2040	2043	
342	0	2043	2048	2047	2049	
343	0	2050	2051	2041	2048	
344	0	2047	2049	2049	2048	
345	0	2048	2048	2043	2043	
346	0	2052	2048	2051	2041	
347	0	2048	2054	2045	2041	
348	0	2050	2054	2052	2054	
349	0	2054	2055	2044	2059	
350	0	2055	2051	2050	2060	
351	0	2060	2051	2046	2059	
352	0	2055	2056	2037	2051	
353	0	2056	2060	2032	2046	
354	0	2050	2054	2049	2045	
355	0	2048	2045	2040	2045	
356	0	2049	2046	2049	2044	
357	0	2046	2046	2044	2042	
358	0	2053	2043	2050	2038	
359	0	2050	2049	2042	2033	
360	0	2053	2047	2041	2038	
361	0	2047	2045	2035	2040	
362	0	2042	2045	2037	2047	
363	0	2046	2045	2036	2057	
364	0	2042	2045	2048	2052	
365	0	2050	2047	2044	2049	
366	0	2048	2052	2053	2053	
367	0	2053	2047	2046	2044	
368	0	2049	2046	2051	2046	
369	0	2047	2048	2044	2050	
370	0	2047	2047	2050	2047	
371	0	2052	2051	2042	2047	
372	0	2055	2054	2053	2050	
373	0	2056	2052	2041	2041	
374	0	2054	2051	2048	2042	
375	0	2054	2044	2044	2041	
376	0	2051	2048	2048	2036	
377	0	2050	2044	2043	2038	
378	0	2050	2045	2049	2037	
379	0	2045	2046	2041	2038	
380	0	2045	2046	2046	2048	
381	0	2042	2048	2048	2048	
382	0	2043	2044	2048	2044	
383	0	2042	2048	2047	2048	
384	0	2044	2047	2053	2051	
385	0	2045	2050	2048	2049	
386	0	2048	2053	2055	2052	
387	0	2049	2052	2053	2055	
388	0	2051	2047	2048	2061	
389	0	2050	2048	2050	2052	
390	0	2052	2050	2043	2057	
391	0	2055	2050	2050	2063	
392	0	2062	2049	2046	2059	
393	0	2056	2054	2054	2056	
394	0	2054	2048	2053	2056	
395	0	2050	2054	2047	2051	
396	0	2048	2048	2048	2046	
397	0	2050	2044	2038	2047	
398	0	2049	2046	2046	2039	
399	0	2045	2045	2046	2040	
400	0	2044	2047	2042	2042	
401	0	2046	2049	2046	2041	
402	0	2043	2051	2051	2039	
403	0	2047	2052	2048	2050	
404	0	2041	2051	2043	2046	
405	0	2046	2042	2045	2044	
406	0	2047	2044	2043	2052	
407	0	2050	2051	2048	2062	
408	0	2055	2046	2049	2058	
409	0	2059	2052	2054	2059	
410	0	2061	2052	2058	2057	
411	0	2056	2050	2050	2059	
412	0	2052	2049	2053	2055	
413	0	2048	2053	2044	2053	
414	0	2054	2057	2050	2054	
415	0	2056	2055	2047	2051	
416	0	2051	2047	2040	2046	
417	0	2047	2042	2045	2051	
418	0	2046	2050	2044	2040	
419	0	2043	2048	2034	2045	
420	0	2043	2049	2043	2040	
421	0	2047	2046	2051	2048	
422	0	2041	2045	2046	2038	
423	0	2042	2043	2049	2049	
424	0	2043	2041	2048	2040	
425	0	2046	2052	2043	2052	
426	0	2049	2047	2051	2043	
427	0	2050	2056	2051	2042	
428	0	2056	2048	2044	2047	
429	0	2056	2048	2054	2053	
430	0	2056	2050	2044	2055	
431	0	2055	2049	2042	2047	
432	0	2053	2049	2052	2044	
433	0	2052	2050	2042	2041	
434	0	2052	2049	2049	2045	
435	0	2052	2051	2045	2042	
436	0	2049	2046	2050	2049	
437	0	2046	2046	2039	2054	
438	0	2049	2046	2046	2052	
439	0	2047	2044	2038	2048	
440	0	2039	2046	2038	2047	
441	0	2041	2044	2042	2045	
442	0	2040	2047	2046	2041	
443	0	2049	2049	2054	2038	
444	0	2045	2050	2053	2035	
445	0	2049	2048	2049	2037	
446	0	2050	2047	2050	2041	
447	0	2050	2046	2054	2050	
448	0	2054	2046	2047	2054	
449	0	2053	2050	2039	2050	
450	0	2054	2048	2052	2045	
451	0	2058	2051	2052	2046	
452	0	2054	2051	2053	2054	
453	0	2052	2049	2052	2054	
454	0	2052	2049	2051	2053	
455	0	2052	2049	2047	2057	
456	0	2045	2046	2045	2054	
457	0	2052	2042	2049	2042	
458	0	2043	2044	2056	2042	
459	0	2046	2046	2050	2043	
460	0	2044	2043	2050	2039	
461	0	2046	2048	2043	2039	
462	0	2046	2048	2049	2034	
463	0	2043	2047	2040	2041	
464	0	2044	2051	2049	2048	
465	0	2047	2051	2038	2048	
466	0	2051	2055	2042	2049	
467	0	2051	2054	2045	2050	
468	0	2051	2049	2052	2054	
469	0	2055	2046	2052	2055	
470	0	2056	2047	2056	2060	
471	0	2056	2044	2056	2052	
472	0	2056	2046	2059	2053	
473	0	2056	2046	2056	2051	
474	0	2052	2045	2049	2061	
475	0	2048	2047	2056	2058	
476	0	2049	2050	2045	2053	
477	0	2047	2052	2048	2046	
478	0	2046	2052	2036	2043	
479	0	2043	2053	2045	2039	
480	0	2042	2051	2037	2033	
481	0	2044	2052	2046	2033	
482	0	2045	2053	2050	2035	
483	0	2045	2052	2050	2039	
484	0	2047	2052	2041	2044	
485	0	2047	2053	2045	2048	
486	0	2050	2050	2053	2047	
487	0	2050	2045	2055	2051	
488	0	2052	2048	2050	2054	
489	0	2059	2053	2056	2055	
490	0	2056	2048	2050	2052	
491	0	2054	2050	2054	2044	
492	0	2056	2049	2037	2042	
493	0	2055	2052	2047	2040	
494	0	2057	2053	2043	2046	
495	0	2050	2050	2046	2042	
496	0	2049	2051	2039	2041	
497	0	2045	2050	2049	2038	
498	0	2043	2049	2046	2044	
499	0	2043	2053	2049	2042	
500	0	2043	2044	2052	2042	
501	0	2046	2044	2043	2040	
502	0	2041	2042	2048	2037	
503	0	2044	2046	2046	2040	
504	0	2042	2042	2045	2040	
505	0	2048	2049	2042	2046	
506	0	2045	2050	2048	2054	
507	0	2050	2049	2046	2053	
508	0	2049	2051	2051	2050	
509	0	2053	2051	2050	2048	
510	0	2057	2053	2055	2052	
511	0	2058	2054	2050	2040	
512	0	2056	2058	2054	2041	
513	0	2059	2053	2057	2036	
514	0	2054	2049	2056	2042	
515	0	2053	2046	2055	2043	
516	0	2048	2045	2050	2044	
517	0	2052	2049	2048	2041	
518	0	2047	2045	2041	2044	
519	0	2043	2046	2046	2044	
520	0	2043	2049	2033	2048	
521	0	2046	2049	2048	2044	
522	0	2048	2054	2051	2043	
523	0	2046	2043	2052	2041	
524	0	2048	2044	2051	2042	
525	0	2049	2048	2046	2043	
526	0	2050	2046	2058	2052	
527	0	2052	2043	2048	2052	
528	0	2050	2040	2055	2058	
529	0	2052	2048	2056	2060	
530	0	2053	2047	2057	2061	
531	0	2055	2045	2052	2062	
532	0	2059	2045	2054	2059	
533	0	2054	2045	2048	2060	
534	0	2054	2047	2052	2053	
535	0	2055	2047	2043	2045	
536	0	2048	2046	2048	2040	
537	0	2048	2048	2042	2034	
538	0	2046	2053	2048	2041	
539	0	2047	2050	2038	2044	
540	0	2047	2050	2046	2043	
541	0	2046	2045	2039	2043	
542	0	2044	2046	2033	2041	
543	0	2041	2045	2025	2040	
544	0	2040	2048	2032	2035	
545	0	2042	2048	2034	2032	
546	0	2039	2049	2031	2031	
547	0	2043	2047	2034	2029	
548	0	2043	2051	2034	2034	
549	0	2054	2053	2039	2035	
550	0	2053	2056	2047	2041	
551	0	2051	2048	2044	2044	
552	0	2051	2053	2046	2044	
553	0	2053	2054	2045	2040	
554	0	2050	2052	2048	2041	
555	0	2047	2051	2049	2044	
556	0	2048	2047	2057	2040	
557	0	2044	2049	2055	2038	
558	0	2046	2048	2058	2039	
559	0	2046	2043	2051	2040	
560	0	2045	2045	2049	2042	
561	0	2048	2046	2050	2046	
562	0	2045	2043	2047	2051	
563	0	2045	2040	2042	2057	
564	0	2044	2040	2049	2059	
565	0	2048	2041	2046	2055	
566	0	2052	2046	2055	2053	
567	0	2050	2046	2054	2054	
568	0	2054	2050	2059	2055	
569	0	2058	2048	2064	2057	
570	0	2060	2048	2062	2056	
571	0	2057	2053	2053	2054	
572	0	2057	2051	2061	2050	
573	0	2053	2049	2059	2047	
574	0	2054	2049	2058	2044	
575	0	2054	2056	2052	2045	
576	0	2050	2056	2039	2043	
577	0	2051	2057	2041	2040	
578	0	2047	2052	2033	2037	
579	0	2045	2047	2043	2037	
580	0	2043	2046	2042	2037	
581	0	2040	2043	2052	2037	
582	0	2044	2043	2054	2034	
583	0	2046	2044	2055	2037	
584	0	2044	2045	2051	2045	
585	0	2047	2047	2058	2043	
586	0	2049	2046	2057	2048	
587	0	2052	2046	2056	2055	
588	0	2053	2047	2053	2057	
589	0	2053	2048	2041	2058	
590	0	2052	2049	2049	2058	
591	0	2056	2052	2046	2048	
592	0	2057	2054	2057	2048	
593	0	2060	2052	2054	2048	
594	0	2057	2050	2051	2048	
595	0	2054	2046	2052	2054	
596	0	2042	2038	2047	2055	
597	0	2042	2041	2048	2054	
598	0	2044	2049	2038	2040	
599	0	2043	2047	2046	2042	
600	0	2043	2045	2047	2048	
601	0	2042	2046	2046	2045	
602	0	2043	2055	2049	2047	
603	0	2046	2054	2051	2047	
604	0	2047	2054	2047	2050	
605	0	2047	2056	2052	2048	
606	0	2047	2051	2048	2054	
607	0	2053	2047	2055	2057	
608	0	2051	2041	2059	2054	
609	0	2054	2049	2060	2053	
610	0	2055	2048	2055	2055	
611	0	2053	2047	2055	2055	
612	0	2053	2052	2050	2057	
613	0	2052	2052	2046	2057	
614	0	2049	2054	2051	2062	
615	0	2052	2056	2050	2057	
616	0	2052	2054	2045	2057	
617	0	2050	2047	2051	2054	
618	0	2049	2045	2058	2051	
619	0	2049	2045	2052	2048	
620	0	2047	2048	2047	2047	
621	0	2051	2050	2031	2047	
622	0	2048	2047	2038	2047	
623	0	2047	2047	2027	2051	
624	0	2045	2048	2040	2051	
625	0	2044	2050	2036	2059	
626	0	2046	2053	2045	2056	
627	0	2045	2050	2037	2057	
628	0	2048	2047	2047	2060	
629	0	2052	2049	2047	2062	
630	0	2057	2049	2055	2065	
631	0	2057	2050	2058	2058	
632	0	2057	2053	2056	2058	
633	0	2056	2052	2060	2054	
634	0	2056	2051	2051	2058	
635	0	2051	2051	2060	2054	
636	0	2048	2056	2046	2054	
637	0	2046	2051	2052	2057	
638	0	2048	2040	2050	2047	
639	0	2046	2044	2047	2045	
640	0	2043	2043	2038	2048	
641	0	2039	2043	2042	2052	
642	0	2044	2049	2045	2050	
643	0	2045	2045	2036	2050	
644	0	2045	2048	2040	2054	
645	0	2048	2050	2034	2047	
646	0	2050	2051	2050	2051	
647	0	2050	2056	2045	2053	
648	0	2049	2048	2048	2055	
649	0	2048	2045	2049	2057	
650	0	2049	2049	2051	2055	
651	0	2049	2046	2046	2060	
652	0	2053	2048	2047	2055	
653	0	2056	2054	2055	2053	
654	0	2063	2054	2044	2056	
655	0	2063	2054	2057	2050	
656	0	2052	2054	2048	2051	
657	0	2043	2051	2047	2047	
658	0	2042	2051	2042	2049	
659	0	2047	2054	2053	2047	
660	0	2046	2055	2044	2046	
661	0	2043	2054	2044	2040	
662	0	2044	2053	2035	2035	
663	0	2046	2048	2043	2042	
664	0	2042	2041	2053	2045	
665	0	2046	2045	2053	2053	
666	0	2049	2043	2046	2047	
667	0	2051	2042	2051	2042	
668	0	2048	2044	2048	2047	
669	0	2051	2049	2053	2045	
670	0	2057	2051	2054	2045	
671	0	2054	2051	2043	2046	
672	0	2053	2052	2046	2044	
673	0	2056	2056	2039	2039	
674	0	2057	2056	2050	2043	
675	0	2051	2046	2044	2039	
676	0	2048	2044	2046	2039	
677	0	2048	2044	2049	2036	
678	0	2046	2045	2045	2033	
679	0	2047	2046	2045	2031	
680	0	2045	2051	2035	2034	
681	0	2046	2045	2049	2033	
682	0	2048	2051	2046	2036	
683	0	2050	2050	2050	2039	
684	0	2046	2050	2048	2037	
685	0	2046	2049	2047	2039	
686	0	2047	2052	2044	2037	
687	0	2049	2048	2046	2043	
688	0	2050	2053	2049	2057	
689	0	2048	2054	2046	2061	
690	0	2054	2050	2055	2059	
691	0	2057	2050	2054	2058	
692	0	2059	2053	2057	2053	
693	0	2058	2051	2055	2048	
694	0	2050	2048	2055	2047	
695	0	2049	2047	2058	2044	
696	0	2044	2044	2051	2043	
697	0	2043	2043	2045	2039	
698	0	2042	2042	2045	2039	
699	0	2044	2047	2039	2039	
700	0	2042	2046	2047	2038	
701	0	2044	2047	2045	2038	
702	0	2042	2043	2049	2036	
703	0	2040	2043	2047	2037	
704	0	2044	2043	2051	2041	
705	0	2050	2040	2054	2042	
706	0	2053	2043	2061	2047	
707	0	2050	2044	2058	2050	
708	0	2055	2051	2063	2046	
709	0	2055	2058	2057	2052	
710	0	2054	2051	2056	2052	
711	0	2054	2053	2052	2055	
712	0	2053	2053	2048	2058	
713	0	2055	2054	2047	2056	
714	0	2059	2054	2046	2052	
715	0	2051	2055	2047	2056	
716	0	2055	2054	2044	2050	
717	0	2045	2050	2042	2041	
718	0	2041	2045	2046	2038	
719	0	2041	2045	2050	2044	
720	0	2048	2050	2046	2034	
721	0	2051	2051	2057	2032	
722	0	2047	2051	2046	2045	
723	0	2044	2053	2053	2055	
724	0	2044	2050	2046	2050	
725	0	2045	2043	2051	2051	
726	0	2044	2042	2043	2056	
727	0	2048	2044	2051	2056	
728	0	2051	2044	2040	2060	
729	0	2055	2047	2052	2059	
730	0	2053	2048	2045	2049	
731	0	2053	2051	2046	2053	
732	0	2055	2053	2044	2049	
733	0	2059	2054	2046	2044	
734	0	2051	2049	2041	2049	
735	0	2048	2049	2043	2042	
736	0	2043	2055	2040	2042	
737	0	2049	2053	2049	2038	
738	0	2050	2053	2042	2035	
739	0	2045	2053	2042	2038	
740	0	2043	2052	2036	2031	
741	0	2048	2048	2051	2037	
742	0	2043	2043	2049	2052	
743	0	2050	2044	2049	2043	
744	0	2048	2045	2051	2043	
745	0	2048	2046	2044	2038	
746	0	2050	2048	2049	2034	
747	0	2050	2055	2046	2040	
748	0	2051	2048	2053	2041	
749	0	2056	2053	2056	2043	
750	0	2054	2050	2054	2048	
751	0	2051	2050	2049	2039	
752	0	2054	2052	2037	2032	
753	0	2056	2060	2048	2036	
754	0	2058	2064	2046	2032	
755	0	2054	2059	2050	2042	
756	0	2050	2043	2046	2047	
757	0	2044	2035	2050	2042	
758	0	2046	2039	2046	2039	
759	0	2046	2046	2046	2044	
760	0	2043	2048	2040	2050	
761	0	2048	2054	2034	2046	
762	0	2046	2055	2046	2040	
763	0	2045	2050	2057	2040	
764	0	2048	2049	2056	2038	
765	0	2049	2048	2056	2035	
766	0	2050	2047	2058	2036	
767	0	2048	2047	2054	2038	
768	0	2052	2048	2052	2040	
769	0	2053	2046	2053	2040	
770	0	2055	2048	2056	2042	
771	0	2053	2047	2056	2050	
772	0	2056	2051	2049	2047	
773	0	2053	2050	2053	2045	
774	0	2054	2052	2039	2046	
775	0	2051	2051	2039	2043	
776	0	2050	2048	2033	2039	
777	0	2045	2048	2040	2041	
778	0	2043	2046	2043	2040	
779	0	2039	2043	2046	2039	
780	0	2042	2047	2048	2037	
781	0	2047	2052	2042	2037	
782	0	2044	2052	2048	2038	
783	0	2040	2053	2040	2036	
784	0	2045	2048	2048	2046	
785	0	2048	2045	2045	2052	
786	0	2047	2043	2047	2053	
787	0	2049	2040	2044	2056	
788	0	2054	2046	2050	2040	
789	0	2054	2044	2042	2047	
790	0	2052	2041	2048	2065	
791	0	2057	2050	2043	2079	
792	0	2060	2052	2052	2075	
793	0	2054	2052	2046	2065	
794	0	2051	2052	2050	2064	
795	0	2055	2055	2054	2054	
796	0	2055	2054	2058	2044	
797	0	2047	2051	2055	2047	
798	0	2047	2054	2038	2042	
799	0	2044	2049	2041	2043	
800	0	2044	2048	2029	2036	
801	0	2044	2049	2038	2044	
802	0	2044	2045	2047	2055	
803	0	2048	2044	2047	2058	
804	0	2044	2042	2049	2062	
805	0	2042	2042	2036	2056	
806	0	2046	2044	2046	2054	
807	0	2046	2052	2039	2044	
808	0	2057	2055	2053	2056	
809	0	2061	2059	2062	2054	
810	0	2059	2061	2063	2050	
811	0	2059	2050	2045	2053	
812	0	2053	2049	2046	2045	
813	0	2049	2050	2050	2051	
814	0	2049	2051	2041	2059	
815	0	2051	2051	2049	2058	
816	0	2045	2050	2044	2054	
817	0	2045	2048	2049	2058	
818	0	2047	2046	2048	2054	
819	0	2044	2040	2038	2056	
820	0	2047	2048	2041	2053	
821	0	2047	2054	2042	2052	
822	0	2045	2051	2047	2054	
823	0	2045	2052	2045	2054	
824	0	2049	2049	2040	2053	
825	0	2046	2040	2044	2049	
826	0	2045	2030	2055	2048	
827	0	2053	2042	2066	2048	
828	0	2055	2042	2060	2053	
829	0	2056	2044	2058	2058	
830	0	2058	2051	2053	2056	
831	0	2055	2051	2053	2055	
832	0	2054	2053	2054	2058	
833	0	2052	2053	2046	2057	
834	0	2050	2050	2048	2057	
835	0	2058	2057	2042	2049	
836	0	2055	2057	2054	2048	
837	0	2051	2055	2052	2038	
838	0	2046	2053	2051	2038	
839	0	2046	2047	2044	2038	
840	0	2043	2045	2041	2037	
841	0	2044	2044	2042	2037	
842	0	2041	2044	2052	2045	
843	0	2043	2043	2049	2046	
844	0	2043	2046	2051	2040	
845	0	2038	2052	2048	2044	
846	0	2042	2054	2045	2056	
847	0	2054	2056	2044	2060	
848	0	2057	2060	2051	2060	
849	0	2057	2064	2055	2053	
850	0	2059	2057	2067	2058	
851	0	2059	2045	2061	2055	
852	0	2055	2033	2048	2051	
853	0	2052	2040	2045	2059	
854	0	2055	2045	2048	2059	
855	0	2052	2050	2054	2053	
856	0	2046	2050	2042	2051	
857	0	2041	2045	2046	2051	
858	0	2036	2045	2028	2048	
859	0	2032	2045	2032	2059	
860	0	2042	2048	2035	2047	
861	0	2047	2053	2057	2037	
862	0	2048	2053	2044	2038	
863	0	2048	2058	2044	2038	
864	0	2053	2052	2048	2037	
865	0	2056	2048	2050	2039	
866	0	2054	2051	2049	2043	
867	0	2050	2044	2049	2055	
868	0	2053	2050	2043	2064	
869	0	2056	2051	2050	2061	
870	0	2056	2053	2055	2062	
871	0	2053	2050	2050	2060	
872	0	2050	2053	2048	2043	
873	0	2051	2054	2054	2033	
874	0	2052	2048	2052	2061	
875	0	2049	2051	2046	2056	
876	0	2042	2047	2047	2053	
877	0	2044	2047	2044	2046	
878	0	2049	2048	2052	2040	
879	0	2046	2053	2035	2038	
880	0	2045	2053	2051	2038	
881	0	2047	2046	2041	2053	
882	0	2041	2046	2043	2052	
883	0	2047	2036	2034	2050	
884	0	2052	2036	2042	2044	
885	0	2050	2043	2040	2054	
886	0	2059	2056	2052	2049	
887	0	2059	2059	2049	2036	
888	0	2052	2052	2055	2036	
889	0	2050	2049	2054	2043	
890	0	2053	2044	2063	2051	
891	0	2052	2045	2054	2049	
892	0	2051	2050	2040	2045	
893	0	2052	2053	2047	2043	
894	0	2053	2050	2039	2046	
895	0	2051	2057	2049	2044	
896	0	2049	2058	2045	2044	
897	0	2048	2050	2045	2045	
898	0	2045	2048	2046	2042	
899	0	2042	2044	2046	2046	
900	0	2044	2045	2048	2049	
901	0	2046	2044	2048	2056	
902	0	2044	2045	2053	2050	
903	0	2045	2047	2049	2053	
904	0	2044	2045	2053	2045	
905	0	2049	2044	2056	2047	
906	0	2051	2047	2052	2044	
907	0	2049	2051	2048	2037	
908	0	2053	2059	2054	2040	
909	0	2052	2060	2056	2046	
910	0	2060	2059	2060	2051	
911	0	2060	2053	2056	2059	
912	0	2057	2052	2056	2063	
913	0	2057	2054	2053	2058	
914	0	2054	2049	2052	2052	
915	0	2047	2046	2056	2050	
916	0	2047	2047	2044	2046	
917	0	2046	2043	2046	2046	
918	0	2043	2044	2044	2044	
919	0	2047	2044	2052	2050	
920	0	2044	2044	2050	2047	
921	0	2044	2046	2051	2051	
922	0	2045	2040	2050	2048	
923	0	2042	2041	2047	2047	
924	0	2043	2047	2045	2043	
925	0	2042	2047	2038	2035	
926	0	2044	2047	2040	2030	
927	0	2050	2054	2050	2040	
928	0	2052	2052	2054	2061	
929	0	2056	2050	2060	2062	
930	0	2057	2055	2057	2052	
931	0	2059	2054	2062	2054	
932	0	2057	2055	2058	2050	
933	0	2055	2047	2057	2044	
934	0	2048	2052	2050	2041	
935	0	2052	2054	2044	2046	
936	0	2053	2052	2040	2050	
937	0	2046	2051	2045	2046	
938	0	2048	2052	2040	2048	
939	0	2050	2052	2044	2038	
940	0	2045	2050	2038	2043	
941	0	2047	2048	2044	2043	
942	0	2043	2051	2040	2040	
943	0	2046	2052	2041	2055	
944	0	2046	2046	2033	2065	
945	0	2050	2047	2038	2061	
946	0	2048	2047	2038	2051	
947	0	2051	2045	2050	2051	
948	0	2054	2045	2045	2046	
949	0	2055	2048	2054	2044	
950	0	2058	2056	2050	2039	
951	0	2058	2057	2054	2034	
952	0	2053	2051	2043	2037	
953	0	2052	2056	2053	2038	
954	0	2054	2057	2043	2038	
955	0	2055	2051	2053	2046	
956	0	2048	2050	2044	2052	
957	0	2043	2045	2043	2052	
958	0	2039	2039	2036	2052	
959	0	2039	2042	2043	2057	
960	0	2042	2039	2033	2056	
961	0	2046	2045	2046	2054	
962	0	2045	2043	2039	2054	
963	0	2044	2045	2050	2036	
964	0	2047	2045	2041	2023	
965	0	2042	2043	2044	2028	
966	0	2047	2043	2040	2045	
967	0	2049	2045	2046	2062	
968	0	2047	2050	2053	2047	
969	0	2051	2058	2046	2047	
970	0	2052	2056	2042	2051	
971	0	2059	2059	2051	2056	
972	0	2064	2067	2044	2051	
973	0	2060	2064	2042	2055	
974	0	2059	2063	2038	2053	
975	0	2052	2059	2043	2048	
976	0	2051	2052	2038	2044	
977	0	2049	2048	2043	2041	
978	0	2051	2051	2038	2035	
979	0	2051	2050	2041	2036	
980	0	2042	2050	2036	2040	
981	0	2043	2051	2049	2047	
982	0	2043	2048	2042	2045	
983	0	2043	2048	2054	2047	
984	0	2044	2049	2052	2048	
985	0	2045	2047	2047	2048	
986	0	2047	2048	2048	2046	
987	0	2050	2048	2055	2050	
988	0	2052	2045	2049	2052	
989	0	2053	2049	2058	2048	
990	0	2054	2046	2044	2058	
991	0	2054	2050	2052	2050	
992	0	2054	2055	2041	2048	
993	0	2053	2055	2044	2048	
994	0	2048	2050	2032	2048	
995	0	2044	2047	2049	2047	
996	0	2050	2047	2042	2046	
997	0	2047	2049	2049	2044	
998	0	2048	2050	2049	2044	
999	0	2045	2048	2044	2050	
1000	0	2046	2046	2043	2047	
1001	0	2043	2044	2044	2044	
1002	0	2047	2044	2054	2036	
1003	0	2048	2045	2047	2035	
1004	0	2050	2055	2051	2040	
1005	0	2056	2051	2047	2045	
1006	0	2053	2051	2057	2054	
1007	0	2052	2046	2053	2056	
1008	0	2048	2041	2054	2055	
1009	0	2050	2030	2050	2055	
1010	0	2049	2036	2051	2052	
1011	0	2056	2042	2050	2048	
1012	0	2054	2046	2050	2044	
1013	0	2056	2052	2048	2039	
1014	0	2057	2052	2043	2051	
1015	0	2061	2058	2054	2057	
1016	0	2051	2053	2044	2055	
1017	0	2055	2051	2050	2055	
1018	0	2052	2047	2044	2049	
1019	0	2032	2029	2043	2042	
1020	0	2035	2025	2038	2036	
1021	0	2046	2038	2045	2028	
1022	0	2049	2048	2047	2033	
1023	0	2047	2050	2048	2040	
1024	0	2049	2049	2053	2047	
1025	0	2047	2047	2053	2055	
1026	0	2045	2049	2050	2056	
1027	0	2051	2054	2052	2059	
1028	0	2051	2051	2053	2061	
1029	0	2048	2050	2047	2055	
1030	0	2051	2055	2049	2056	
1031	0	2060	2053	2046	2056	
1032	0	2054	2054	2047	2053	
1033	0	2054	2057	2050	2044	
1034	0	2054	2054	2057	2042	
1035	0	2049	2057	2051	2042	
1036	0	2048	2058	2054	2039	
1037	0	2051	2054	2055	2040	
1038	0	2046	2047	2052	2039	
1039	0	2048	2048	2048	2038	
1040	0	2047	2044	2051	2039	
1041	0	2047	2046	2046	2034	
1042	0	2049	2048	2042	2037	
1043	0	2043	2048	2050	2042	
1044	0	2042	2048	2038	2043	
1045	0	2045	2046	2046	2051	
1046	0	2046	2048	2037	2055	
1047	0	2046	2051	2047	2052	
1048	0	2045	2053	2039	2047	
1049	0	2051	2049	2050	2045	
1050	0	2056	2048	2051	2044	
1051	0	2057	2046	2057	2044	
1052	0	2056	2049	2056	2042	
1053	0	2058	2055	2053	2045	
1054	0	2054	2056	2053	2043	
1055	0	2052	2054	2048	2039	
1056	0	2048	2055	2046	2050	
1057	0	2050	2052	2044	2049	
1058	0	2049	2045	2047	2050	
1059	0	2043	2045	2046	2049	
1060	0	2048	2042	2042	2046	
1061	0	2042	2043	2042	2049	
1062	0	2046	2045	2049	2049	
1063	0	2048	2047	2042	2047	
1064	0	2049	2046	2056	2048	
1065	0	2047	2044	2049	2049	
1066	0	2048	2041	2053	2047	
1067	0	2046	2047	2050	2049	
1068	0	2047	2049	2054	2051	
1069	0	2051	2054	2054	2043	
1070	0	2055	2055	2058	2042	
1071	0	2052	2055	2054	2044	
1072	0	2057	2054	2052	2045	
1073	0	2055	2054	2050	2056	
1074	0	2052	2050	2046	2058	
1075	0	2052	2046	2055	2056	
1076	0	2052	2043	2053	2054	
1077	0	2047	2041	2046	2051	
1078	0	2043	2044	2051	2049	
1079	0	2045	2049	2039	2045	
1080	0	2044	2045	2049	2044	
1081	0	2043	2048	2036	2046	
1082	0	2046	2054	2048	2037	
1083	0	2044	2062	2039	2046	
1084	0	2049	2054	2048	2048	
1085	0	2047	2050	2042	2038	
1086	0	2049	2047	2043	2035	
1087	0	2052	2045	2039	2038	
1088	0	2054	2043	2053	2050	
1089	0	2056	2043	2052	2050	
1090	0	2054	2047	2054	2060	
1091	0	2052	2051	2053	2057	
1092	0	2056	2056	2060	2049	
1093	0	2060	2056	2060	2042	
1094	0	2054	2052	2047	2067	
1095	0	2050	2047	2054	2056	
1096	0	2050	2057	2046	2046	
1097	0	2050	2059	2051	2044	
1098	0	2047	2054	2045	2047	
1099	0	2044	2048	2044	2047	
1100	0	2041	2049	2035	2039	
1101	0	2043	2046	2042	2043	
1102	0	2040	2039	2032	2051	
1103	0	2041	2041	2040	2041	
1104	0	2043	2041	2032	2035	
1105	0	2045	2042	2040	2035	
1106	0	2055	2047	2045	2038	
1107	0	2056	2047	2050	2049	
1108	0	2056	2045	2046	2055	
1109	0	2054	2047	2053	2061	
1110	0	2057	2050	2056	2060	
1111	0	2055	2053	2054	2058	
1112	0	2052	2054	2043	2054	
1113	0	2053	2057	2050	2045	
1114	0	2054	2058	2044	2047	
1115	0	2056	2051	2058	2041	
1116	0	2044	2048	2042	2048	
1117	0	2044	2047	2042	2059	
1118	0	2042	2049	2041	2053	
1119	0	2044	2048	2046	2047	
1120	0	2042	2047	2040	2044	
1121	0	2043	2046	2045	2040	
1122	0	2042	2042	2040	2046	
1123	0	2044	2048	2042	2044	
1124	0	2043	2048	2041	2042	
1125	0	2053	2051	2035	2043	
1126	0	2056	2053	2051	2046	
1127	0	2055	2052	2048	2038	
1128	0	2053	2057	2056	2043	
1129	0	2051	2053	2055	2053	
1130	0	2055	2043	2057	2047	
1131	0	2055	2046	2055	2044	
1132	0	2051	2043	2057	2046	
1133	0	2059	2053	2057	2049	
1134	0	2055	2050	2061	2051	
1135	0	2051	2048	2053	2061	
1136	0	2050	2048	2051	2057	
1137	0	2051	2051	2052	2046	
1138	0	2047	2053	2053	2048	
1139	0	2044	2048	2049	2045	
1140	0	2042	2045	2042	2045	
1141	0	2038	2047	2039	2052	
1142	0	2042	2044	2041	2054	
1143	0	2045	2051	2050	2049	
1144	0	2052	2051	2049	2047	
1145	0	2049	2052	2044	2057	
1146	0	2048	2048	2047	2053	
1147	0	2046	2045	2041	2050	
1148	0	2046	2046	2051	2047	
1149	0	2051	2051	2048	2052	
1150	0	2052	2052	2055	2058	
1151	0	2054	2054	2053	2060	
1152	0	2052	2048	2039	2060	
1153	0	2054	2049	2046	2057	
1154	0	2057	2049	2047	2060	
1155	0	2058	2050	2053	2055	
1156	0	2052	2055	2055	2053	
1157	0	2050	2054	2056	2044	
1158	0	2050	2055	2046	2036	
1159	0	2041	2045	2031	2033	
1160	0	2042	2042	2043	2045	
1161	0	2044	2045	2048	2034	
1162	0	2045	2052	2047	2042	
1163	0	2042	2048	2051	2045	
1164	0	2040	2040	2053	2036	
1165	0	2037	2046	2055	2042	
1166	0	2047	2061	2036	2046	
1167	0	2057	2057	2044	2034	
1168	0	2050	2043	2045	2053	
1169	0	2052	2024	2044	2067	
1170	0	2060	2043	2059	2051	
1171	0	2062	2056	2046	2052	
1172	0	2057	2056	2051	2052	
1173	0	2048	2044	2035	2060	
1174	0	2047	2060	2053	2053	
1175	0	2057	2060	2048	2035	
1176	0	2054	2053	2052	2040	
1177	0	2050	2041	2040	2031	
1178	0	2046	2044	2052	2048	
1179	0	2044	2026	2046	2073	
1180	0	2044	2037	2038	2046	
1181	0	2048	2046	2051	2044	
1182	0	2050	2063	2051	2045	
1183	0	2050	2060	2040	2033	
1184	0	2050	2048	2048	2052	
1185	0	2049	2042	2050	2036	
1186	0	2051	2041	2056	2041	
1187	0	2052	2047	2042	2052	
1188	0	2046	2044	2048	2045	
1189	0	2046	2057	2048	2058	
1190	0	2052	2055	2051	2042	
1191	0	2057	2054	2052	2058	
1192	0	2057	2062	2040	2038	
1193	0	2054	2054	2046	2054	
1194	0	2056	2052	2047	2042	
1195	0	2050	2054	2055	2057	
1196	0	2048	2047	2039	2046	
1197	0	2041	2043	2052	2048	
1198	0	2043	2052	2053	2052	
1199	0	2041	2048	2057	2033	
1200	0	2046	2045	2040	2054	
1201	0	2044	2044	2048	2041	
1202	0	2042	2048	2042	2047	
1203	0	2046	2045	2047	2044	
1204	0	2045	2046	2035	2042	
1205	0	2049	2049	2050	2055	
1206	0	2049	2058	2046	2040	
1207	0	2053	2051	2043	2053	
1208	0	2055	2051	2052	2048	
1209	0	2052	2055	2055	2053	
1210	0	2057	2053	2061	2051	
1211	0	2054	2045	2045	2044	
1212	0	2058	2046	2051	2060	
1213	0	2050	2059	2048	2046	
1214	0	2048	2051	2050	2054	
1215	0	2049	2045	2043	2050	
1216	0	2051	2050	2049	2039	
1217	0	2048	2048	2041	2053	
1218	0	2045	2044	2044	2036	
1219	0	2046	2051	2045	2052	
1220	0	2046	2048	2035	2041	
1221	0	2042	2038	2051	2039	
1222	0	2043	2045	2051	2047	
1223	0	2041	2040	2048	2037	
1224	0	2042	2044	2050	2056	
1225	0	2046	2049	2042	2046	
1226	0	2044	2051	2049	2049	
1227	0	2052	2048	2046	2055	
1228	0	2054	2048	2055	2051	
1229	0	2054	2053	2044	2056	
1230	0	2054	2048	2056	2045	
1231	0	2047	2054	2053	2060	
1232	0	2052	2048	2049	2043	
1233	0	2056	2049	2054	2053	
1234	0	2056	2053	2040	2046	
1235	0	2054	2052	2050	2043	
1236	0	2053	2052	2051	2051	
1237	0	2051	2045	2057	2035	
1238	0	2055	2052	2044	2045	
1239	0	2052	2054	2055	2043	
1240	0	2045	2046	2050	2039	
1241	0	2048	2043	2047	2045	
1242	0	2041	2047	2035	2037	
1243	0	2037	2047	2035	2043	
1244	0	2041	2045	2040	2057	
1245	0	2046	2045	2045	2047	
1246	0	2050	2052	2051	2055	
1247	0	2054	2048	2042	2046	
1248	0	2057	2051	2033	2041	
1249	0	2053	2056	2046	2050	
1250	0	2048	2052	2044	2055	
1251	0	2051	2049	2054	2054	
1252	0	2057	2060	2052	2040	
1253	0	2053	2054	2044	2041	
1254	0	2053	2045	2056	2062	
1255	0	2048	2048	2051	2054	
1256	0	2045	2046	2049	2057	
1257	0	2039	2038	2048	2051	
1258	0	2043	2039	2033	2044	
1259	0	2042	2045	2047	2049	
1260	0	2041	2046	2048	2035	
1261	0	2045	2044	2052	2043	
1262	0	2046	2048	2053	2038	
1263	0	2048	2066	2043	2032	
1264	0	2053	2061	2053	2047	
1265	0	2052	2046	2055	2044	
1266	0	2055	2055	2055	2049	
1267	0	2053	2047	2051	2039	
1268	0	2053	2047	2047	2061	
1269	0	2053	2051	2039	2048	
1270	0	2054	2050	2055	2056	
1271	0	2051	2046	2051	2063	
1272	0	2052	2042	2051	2049	
1273	0	2053	2049	2038	2053	
1274	0	2056	2058	2053	2048	
1275	0	2053	2056	2053	2043	
1276	0	2045	2051	2051	2042	
1277	0	2050	2050	2046	2034	
1278	0	2048	2043	2051	2042	
1279	0	2047	2043	2034	2043	
1280	0	2044	2051	2041	2056	
1281	0	2048	2048	2048	2041	
1282	0	2050	2042	2053	2052	
1283	0	2042	2048	2050	2048	
1284	0	2040	2042	2046	2051	
1285	0	2046	2046	2041	2043	
1286	0	2052	2052	2054	2047	
1287	0	2054	2050	2054	2048	
1288	0	2053	2045	2051	2043	
1289	0	2054	2052	2056	2058	
1290	0	2054	2049	2043	2047	
1291	0	2050	2046	2043	2054	
1292	0	2049	2042	2047	2052	
1293	0	2054	2052	2051	2043	
1294	0	2049	2051	2043	2065	
1295	0	2048	2046	2055	2043	
1296	0	2049	2051	2050	2050	
1297	0	2050	2051	2045	2040	
1298	0	2050	2048	2039	2049	
1299	0	2045	2048	2038	2041	
1300	0	2036	2046	2047	2041	
1301	0	2040	2042	2037	2047	
1302	0	2046	2046	2035	2038	
1303	0	2045	2051	2053	2053	
1304	0	2053	2048	2046	2034	
1305	0	2053	2048	2053	2044	
1306	0	2055	2059	2052	2034	
1307	0	2053	2053	2052	2038	
1308	0	2051	2044	2052	2067	
1309	0	2054	2057	2047	2047	
1310	0	2054	2052	2054	2058	
1311	0	2055	2046	2054	2042	
1312	0	2055	2054	2054	2056	
1313	0	2056	2055	2046	2046	
1314	0	2053	2051	2042	2062	
1315	0	2050	2042	2048	2061	
1316	0	2049	2049	2049	2041	
1317	0	2053	2054	2054	2054	
1318	0	2038	2042	2044	2038	
1319	0	2037	2033	2052	2056	
1320	0	2040	2042	2047	2040	
1321	0	2046	2045	2044	2037	
1322	0	2047	2046	2053	2044	
1323	0	2046	2063	2038	2030	
1324	0	2046	2055	2044	2044	
1325	0	2051	2051	2047	2042	
1326	0	2056	2054	2047	2034	
1327	0	2055	2054	2048	2047	
1328	0	2053	2048	2041	2037	
1329	0	2053	2051	2048	2056	
1330	0	2051	2052	2054	2051	
1331	0	2052	2049	2051	2057	
1332	0	2052	2046	2055	2051	
1333	0	2051	2051	2045	2052	
1334	0	2048	2040	2040	2054	
1335	0	2050	2041	2048	2044	
1336	0	2049	2056	2051	2052	
1337	0	2052	2049	2051	2037	
1338	0	2047	2045	2058	2057	
1339	0	2044	2046	2044	2047	
1340	0	2046	2051	2049	2036	
1341	0	2039	2047	2049	2039	
1342	0	2043	2041	2043	2036	
1343	0	2042	2049	2048	2050	
1344	0	2043	2050	2039	2047	
1345	0	2042	2048	2048	2041	
1346	0	2044	2047	2039	2059	
1347	0	2051	2054	2050	2046	
1348	0	2054	2050	2042	2047	
1349	0	2055	2047	2035	2048	
1350	0	2056	2044	2044	2073	
1351	0	2056	2052	2049	2036	
1352	0	2053	2070	2048	2043	
1353	0	2054	2054	2050	2035	
1354	0	2051	2054	2045	2041	
1355	0	2050	2052	2050	2061	
1356	0	2051	2052	2049	2062	
1357	0	2047	2049	2042	2052	
1358	0	2044	2046	2040	2042	
1359	0	2046	2054	2054	2052	
1360	0	2048	2048	2052	2052	
1361	0	2042	2044	2048	2060	
1362	0	2043	2027	2047	2038	
1363	0	2044	2029	2054	2048	
1364	0	2047	2036	2040	2036	
1365	0	2050	2046	2038	2044	
1366	0	2053	2061	2053	2036	
1367	0	2055	2049	2058	2054	
1368	0	2054	2050	2051	2042	
1369	0	2057	2047	2050	2044	
1370	0	2055	2051	2058	2040	
1371	0	2051	2046	2050	2034	
1372	0	2054	2052	2052	2041	
1373	0	2054	2054	2045	2073	
1374	0	2050	2049	2054	2064	
1375	0	2055	2051	2056	2044	
1376	0	2045	2047	2049	2066	
1377	0	2044	2048	2047	2049	
1378	0	2044	2049	2047	2036	
1379	0	2042	2049	2045	2040	
1380	0	2037	2043	2047	2068	
1381	0	2045	2040	2043	2053	
1382	0	2043	2038	2049	2037	
1383	0	2046	2045	2045	2036	
1384	0	2044	2043	2048	2039	
1385	0	2044	2055	2046	2032	
1386	0	2056	2055	2055	2035	
1387	0	2054	2052	2054	2047	
1388	0	2053	2050	2049	2058	
1389	0	2058	2054	2053	2040	
1390	0	2057	2058	2050	2045	
1391	0	2056	2059	2053	2057	
1392	0	2057	2053	2046	2062	
1393	0	2053	2057	2047	2057	
1394	0	2053	2055	2044	2060	
1395	0	2053	2051	2055	2057	
1396	0	2050	2048	2055	2047	
1397	0	2050	2047	2046	2052	
1398	0	2052	2048	2037	2042	
1399	0	2049	2056	2047	2029	
1400	0	2047	2050	2041	2032	
1401	0	2048	2045	2051	2031	
1402	0	2047	2046	2047	2037	
1403	0	2044	2040	2044	2044	
1404	0	2039	2045	2045	2051	
1405	0	2043	2043	2050	2057	
1406	0	2047	2046	2050	2056	
1407	0	2046	2043	2053	2054	
1408	0	2050	2048	2052	2058	
1409	0	2052	2046	2049	2050	
1410	0	2053	2051	2054	2056	
1411	0	2056	2053	2042	2053	
1412	0	2055	2055	2052	2041	
1413	0	2056	2053	2041	2044	
1414	0	2048	2047	2048	2052	
1415	0	2049	2046	2033	2052	
1416	0	2049	2045	2049	2047	
1417	0	2060	2052	2046	2048	
1418	0	2051	2051	2051	2042	
1419	0	2038	2046	2038	2052	
1420	0	2034	2042	2043	2052	
1421	0	2032	2044	2031	2044	
1422	0	2035	2046	2044	2040	
1423	0	2040	2042	2040	2039	
1424	0	2044	2049	2051	2042	
1425	0	2050	2051	2054	2040	
1426	0	2058	2050	2057	2043	
1427	0	2054	2058	2055	2041	
1428	0	2056	2054	2053	2050	
1429	0	2058	2051	2049	2051	
1430	0	2059	2051	2055	2054	
1431	0	2058	2050	2042	2058	
1432	0	2055	2050	2051	2055	
1433	0	2056	2045	2042	2055	
1434	0	2056	2049	2050	2058	
1435	0	2049	2048	2043	2053	
1436	0	2049	2047	2045	2059	
1437	0	2043	2047	2043	2061	
1438	0	2046	2052	2054	2046	
1439	0	2047	2058	2044	2044	
1440	0	2048	2052	2047	2049	
1441	0	2046	2046	2052	2045	
1442	0	2044	2042	2053	2042	
1443	0	2046	2036	2056	2038	
1444	0	2047	2045	2051	2033	
1445	0	2050	2045	2050	2039	
1446	0	2051	2050	2058	2044	
1447	0	2054	2052	2051	2056	
1448	0	2056	2056	2054	2057	
1449	0	2055	2051	2056	2058	
1450	0	2053	2050	2059	2055	
1451	0	2056	2053	2054	2053	
1452	0	2054	2050	2056	2065	
1453	0	2053	2046	2058	2063	
1454	0	2052	2050	2052	2055	
1455	0	2051	2047	2053	2044	
1456	0	2045	2050	2040	2045	
1457	0	2046	2047	2043	2044	
1458	0	2050	2048	2029	2048	
1459	0	2043	2047	2041	2046	
1460	0	2039	2046	2044	2047	
1461	0	2041	2043	2049	2043	
1462	0	2043	2044	2044	2046	
1463	0	2046	2055	2041	2036	
1464	0	2048	2047	2049	2045	
1465	0	2049	2055	2039	2041	
1466	0	2048	2049	2041	2064	
1467	0	2052	2048	2058	2041	
1468	0	2052	2052	2054	2047	
1469	0	2056	2051	2058	2037	
1470	0	2055	2049	2044	2072	
1471	0	2053	2052	2053	2055	
1472	0	2058	2058	2056	2056	
1473	0	2055	2054	2057	2049	
1474	0	2051	2056	2053	2051	
1475	0	2050	2051	2046	2054	
1476	0	2048	2037	2051	2054	
1477	0	2052	2035	2054	2056	
1478	0	2051	2046	2057	2059	
1479	0	2054	2043	2062	2040	
1480	0	2047	2050	2046	2057	
1481	0	2047	2046	2052	2045	
1482	0	2039	2029	2052	2079	
1483	0	2036	2032	2061	2054	
1484	0	2034	2035	2043	2058	
1485	0	2040	2048	2037	2043	
1486	0	2048	2061	2042	2045	
1487	0	2052	2056	2048	2036	
1488	0	2055	2064	2045	2028	
1489	0	2060	2055	2043	2054	
1490	0	2063	2059	2053	2039	
1491	0	2060	2053	2040	2044	
1492	0	2055	2054	2035	2032	
1493	0	2053	2056	2036	2035	
1494	0	2053	2052	2034	2033	
1495	0	2049	2058	2034	2032	
1496	0	2042	2049	2039	2047	
1497	0	2043	2054	2037	2040	
1498	0	2037	2046	2028	2033	
1499	0	2037	2044	2038	2043	
1500	0	2040	2049	2037	2037	
1501	0	2039	2045	2034	2049	
1502	0	2037	2050	2028	2039	
1503	0	2042	2043	2043	2038	
1504	0	2044	2045	2053	2051	
1505	0	2035	2042	2040	2042	
1506	0	2044	2040	2054	2057	
1507	0	2055	2050	2058	2047	
1508	0	2051	2044	2059	2061	
1509	0	2052	2052	2061	2044	
1510	0	2060	2061	2066	2057	
1511	0	2068	2068	2050	2039	
1512	0	2063	2068	2045	2053	
1513	0	2054	2054	2054	2044	
1514	0	2052	2044	2058	2073	
1515	0	2056	2045	2053	2060	
1516	0	2050	2029	2056	2061	
1517	0	2045	2040	2042	2034	
1518	0	2043	2044	2042	2052	
1519	0	2045	2043	2054	2046	
1520	0	2049	2051	2052	2037	
1521	0	2049	2046	2055	2022	
1522	0	2044	2052	2049	2037	
1523	0	2040	2049	2035	2043	
1524	0	2044	2039	2045	2080	
1525	0	2046	2045	2049	2053	
1526	0	2050	2041	2052	2052	
1527	0	2056	2048	2045	2051	
1528	0	2056	2049	2054	2054	
1529	0	2058	2054	2047	2053	
1530	0	2060	2060	2049	2049	
1531	0	2054	2053	2050	2059	
1532	0	2050	2048	2051	2045	
1533	0	2052	2051	2048	2059	
1534	0	2050	2045	2055	2049	
1535	0	2050	2052	2048	2060	
1536	0	2053	2050	2046	2037	
1537	0	2052	2050	2056	2047	
1538	0	2050	2052	2051	2028	
1539	0	2044	2047	2047	2045	
1540	0	2043	2050	2054	2041	
1541	0	2047	2045	2049	2050	
1542	0	2046	2044	2046	2041	
1543	0	2045	2045	2048	2043	
1544	0	2035	2042	2036	2058	
1545	0	2037	2039	2047	2058	
1546	0	2049	2042	2045	2047	
1547	0	2050	2053	2049	2047	
1548	0	2050	2057	2040	2049	
1549	0	2054	2063	2052	2044	
1550	0	2060	2064	2051	2039	
1551	0	2055	2061	2051	2045	
1552	0	2056	2054	2049	2047	
1553	0	2056	2052	2050	2044	
1554	0	2053	2047	2054	2040	
1555	0	2048	2040	2051	2050	
1556	0	2047	2043	2049	2048	
1557	0	2053	2052	2038	2045	
1558	0	2054	2053	2048	2036	
1559	0	2052	2051	2043	2037	
1560	0	2045	2046	2046	2044	
1561	0	2047	2047	2040	2042	
1562	0	2044	2047	2049	2053	
1563	0	2044	2054	2046	2053	
1564	0	2047	2056	2048	2053	
1565	0	2046	2046	2042	2054	
1566	0	2049	2043	2051	2053	
1567	0	2053	2045	2051	2049	
1568	0	2049	2044	2046	2058	
1569	0	2048	2043	2044	2058	
1570	0	2052	2047	2054	2060	
1571	0	2057	2039	2057	2057	
1572	0	2056	2043	2060	2052	
1573	0	2052	2049	2051	2051	
1574	0	2046	2044	2046	2044	
1575	0	2044	2056	2048	2031	
1576	0	2047	2059	2046	2026	
1577	0	2047	2059	2053	2025	
1578	0	2043	2053	2042	2040	
1579	0	2039	2049	2046	2066	
1580	0	2041	2045	2034	2046	
1581	0	2044	2039	2039	2039	
1582	0	2046	2054	2041	2044	
1583	0	2048	2056	2052	2059	
1584	0	2053	2050	2047	2058	
1585	0	2047	2052	2048	2053	
1586	0	2049	2049	2035	2053	
1587	0	2051	2047	2048	2053	
1588	0	2051	2053	2040	2055	
1589	0	2051	2056	2047	2055	
1590	0	2058	2063	2050	2051	
1591	0	2059	2061	2047	2053	
1592	0	2054	2055	2054	2068	
1593	0	2057	2053	2059	2063	
1594	0	2059	2045	2060	2053	
1595	0	2052	2031	2058	2053	
1596	0	2047	2031	2052	2045	
1597	0	2046	2043	2050	2035	
1598	0	2048	2044	2046	2026	
1599	0	2047	2050	2049	2026	
1600	0	2046	2052	2053	2053	
1601	0	2050	2052	2048	2056	
1602	0	2043	2050	2047	2044	
1603	0	2042	2048	2052	2043	
1604	0	2045	2042	2049	2048	
1605	0	2043	2033	2051	2051	
1606	0	2048	2044	2051	2044	
1607	0	2047	2057	2056	2042	
1608	0	2055	2053	2054	2039	
1609	0	2053	2049	2048	2040	
1610	0	2053	2052	2052	2047	
1611	0	2054	2054	2043	2046	
1612	0	2050	2047	2046	2051	
1613	0	2051	2048	2029	2060	
1614	0	2049	2043	2041	2061	
1615	0	2046	2046	2040	2050	
1616	0	2046	2050	2057	2048	
1617	0	2051	2059	2057	2039	
1618	0	2054	2059	2054	2035	
1619	0	2049	2052	2051	2039	
1620	0	2048	2050	2049	2039	
1621	0	2050	2046	2050	2035	
1622	0	2040	2043	2051	2036	
1623	0	2043	2045	2046	2043	
1624	0	2046	2050	2056	2048	
1625	0	2054	2049	2054	2034	
1626	0	2052	2048	2054	2050	
1627	0	2054	2049	2051	2050	
1628	0	2055	2054	2053	2053	
1629	0	2055	2055	2048	2058	
1630	0	2054	2053	2048	2050	
1631	0	2050	2052	2050	2049	
1632	0	2046	2048	2047	2052	
1633	0	2046	2048	2036	2041	
1634	0	2045	2045	2041	2042	
1635	0	2037	2040	2041	2054	
1636	0	2038	2034	2044	2068	
1637	0	2046	2041	2038	2050	
1638	0	2059	2051	2063	2035	
1639	0	2056	2050	2061	2037	
1640	0	2049	2053	2051	2039	
1641	0	2044	2054	2047	2037	
1642	0	2042	2052	2036	2047	
1643	0	2044	2046	2042	2053	
1644	0	2049	2048	2045	2049	
1645	0	2050	2049	2055	2046	
1646	0	2051	2052	2046	2057	
1647	0	2053	2053	2050	2052	
1648	0	2057	2053	2046	2062	
1649	0	2055	2053	2055	2056	
1650	0	2052	2056	2054	2055	
1651	0	2051	2061	2056	2058	
1652	0	2051	2056	2051	2058	
1653	0	2054	2055	2047	2055	
1654	0	2051	2042	2046	2054	
1655	0	2056	2041	2045	2054	
1656	0	2054	2043	2051	2053	
1657	0	2060	2042	2039	2044	
1658	0	2051	2047	2047	2039	
1659	0	2049	2041	2043	2041	
1660	0	2044	2046	2053	2040	
1661	0	2045	2046	2047	2039	
1662	0	2047	2044	2053	2040	
1663	0	2046	2044	2049	2042	
1664	0	2043	2044	2045	2042	
1665	0	2043	2051	2045	2048	
1666	0	2048	2055	2044	2050	
1667	0	2052	2049	2054	2045	
1668	0	2050	2050	2056	2041	
1669	0	2052	2049	2055	2043	
1670	0	2053	2051	2054	2044	
1671	0	2047	2045	2057	2046	
1672	0	2050	2045	2048	2050	
1673	0	2046	2043	2044	2045	
1674	0	2040	2044	2037	2060	
1675	0	2043	2052	2045	2056	
1676	0	2053	2056	2049	2051	
1677	0	2053	2049	2047	2049	
1678	0	2046	2045	2052	2040	
1679	0	2046	2044	2050	2039	
1680	0	2050	2048	2043	2038	
1681	0	2053	2050	2046	2040	
1682	0	2054	2048	2053	2048	
1683	0	2047	2044	2057	2056	
1684	0	2047	2048	2049	2049	
1685	0	2048	2054	2044	2050	
1686	0	2051	2056	2044	2052	
1687	0	2049	2055	2038	2052	
1688	0	2054	2057	2050	2044	
1689	0	2054	2053	2042	2045	
1690	0	2055	2044	2049	2051	
1691	0	2054	2044	2049	2053	
1692	0	2056	2045	2056	2050	
1693	0	2053	2043	2052	2047	
1694	0	2051	2039	2057	2050	
1695	0	2046	2040	2042	2043	
1696	0	2043	2040	2031	2051	
1697	0	2045	2044	2045	2050	
1698	0	2048	2060	2032	2038	
1699	0	2052	2067	2046	2037	
1700	0	2051	2065	2040	2040	
1701	0	2049	2066	2049	2041	
1702	0	2049	2064	2040	2039	
1703	0	2046	2054	2041	2052	
1704	0	2046	2042	2041	2053	
1705	0	2048	2032	2048	2047	
1706	0	2044	2025	2052	2057	
1707	0	2046	2032	2057	2051	
1708	0	2050	2039	2060	2050	
1709	0	2055	2047	2052	2045	
1710	0	2053	2054	2054	2042	
1711	0	2052	2055	2053	2061	
1712	0	2057	2064	2061	2049	
1713	0	2058	2059	2056	2040	
1714	0	2053	2055	2050	2047	
1715	0	2050	2046	2047	2054	
1716	0	2045	2040	2030	2051	
1717	0	2046	2047	2037	2042	
1718	0	2044	2048	2041	2037	
1719	0	2048	2047	2052	2036	
1720	0	2048	2051	2052	2029	
1721	0	2040	2046	2038	2038	
1722	0	2039	2046	2044	2050	
1723	0	2045	2048	2038	2040	
1724	0	2048	2050	2044	2039	
1725	0	2049	2047	2042	2043	
1726	0	2056	2051	2052	2046	
1727	0	2059	2056	2051	2066	
1728	0	2047	2044	2053	2074	
1729	0	2049	2054	2049	2052	
1730	0	2056	2053	2050	2043	
1731	0	2056	2060	2052	2037	
1732	0	2057	2056	2057	2045	
1733	0	2057	2053	2046	2050	
1734	0	2052	2046	2046	2067	
1735	0	2052	2043	2040	2059	
1736	0	2053	2046	2050	2045	
1737	0	2052	2050	2038	2040	
1738	0	2051	2053	2047	2036	
1739	0	2043	2050	2039	2042	
1740	0	2040	2044	2044	2044	
1741	0	2037	2043	2044	2043	
1742	0	2039	2044	2045	2047	
1743	0	2041	2044	2052	2049	
1744	0	2042	2045	2051	2047	
1745	0	2047	2045	2052	2037	
1746	0	2047	2047	2049	2038	
1747	0	2045	2044	2048	2054	
1748	0	2046	2045	2050	2042	
1749	0	2049	2051	2057	2042	
1750	0	2051	2051	2051	2046	
1751	0	2055	2055	2051	2063	
1752	0	2058	2055	2043	2074	
1753	0	2067	2065	2054	2052	
1754	0	2067	2059	2054	2056	
1755	0	2060	2047	2052	2063	
1756	0	2055	2039	2047	2052	
1757	0	2047	2030	2050	2054	
1758	0	2043	2039	2047	2056	
1759	0	2040	2046	2044	2038	
1760	0	2041	2048	2044	2037	
1761	0	2041	2053	2035	2023	
1762	0	2043	2051	2047	2030	
1763	0	2041	2051	2041	2032	
1764	0	2041	2055	2044	2040	
1765	0	2049	2057	2048	2036	
1766	0	2053	2052	2054	2032	
1767	0	2052	2048	2051	2040	
1768	0	2053	2042	2055	2045	
1769	0	2056	2045	2058	2047	
1770	0	2065	2046	2059	2054	
1771	0	2060	2043	2052	2062	
1772	0	2052	2049	2052	2065	
1773	0	2055	2045	2052	2061	
1774	0	2055	2054	2051	2057	
1775	0	2049	2053	2041	2045	
1776	0	2051	2059	2038	2052	
1777	0	2047	2050	2049	2041	
1778	0	2047	2043	2044	2037	
1779	0	2044	2047	2054	2043	
1780	0	2040	2046	2034	2037	
1781	0	2046	2047	2051	2053	
1782	0	2043	2049	2051	2048	
1783	0	2044	2043	2046	2050	
1784	0	2044	2043	2050	2051	
1785	0	2048	2048	2046	2047	
1786	0	2049	2045	2052	2041	
1787	0	2048	2046	2047	2039	
1788	0	2050	2046	2043	2046	
1789	0	2051	2046	2038	2052	
1790	0	2057	2049	2046	2063	
1791	0	2056	2042	2046	2059	
1792	0	2059	2045	2051	2048	
1793	0	2056	2053	2046	2039	
1794	0	2056	2052	2050	2049	
1795	0	2050	2046	2046	2070	
1796	0	2048	2045	2049	2050	
1797	0	2044	2047	2048	2047	
1798	0	2041	2042	2053	2037	
1799	0	2040	2039	2052	2041	
1800	0	2038	2047	2050	2045	
1801	0	2045	2054	2045	2037	
1802	0	2044	2049	2048	2045	
1803	0	2046	2050	2044	2048	
1804	0	2046	2049	2050	2046	
1805	0	2050	2052	2046	2054	
1806	0	2050	2055	2047	2051	
1807	0	2053	2053	2054	2051	
1808	0	2053	2047	2059	2056	
1809	0	2056	2046	2057	2055	
1810	0	2052	2051	2043	2057	
1811	0	2051	2047	2049	2057	
1812	0	2046	2052	2040	2055	
1813	0	2053	2055	2051	2052	
1814	0	2059	2053	2055	2044	
1815	0	2058	2046	2056	2044	
1816	0	2058	2049	2052	2038	
1817	0	2058	2060	2055	2033	
1818	0	2055	2056	2052	2033	
1819	0	2043	2045	2038	2046	
1820	0	2038	2040	2043	2047	
1821	0	2037	2043	2034	2049	
1822	0	2040	2050	2045	2049	
1823	0	2045	2051	2039	2052	
1824	0	2047	2049	2046	2053	
1825	0	2047	2054	2049	2058	
1826	0	2049	2051	2054	2054	
1827	0	2057	2057	2050	2049	
1828	0	2058	2057	2056	2048	
1829	0	2055	2054	2055	2050	
1830	0	2061	2053	2052	2051	
1831	0	2057	2052	2052	2054	
1832	0	2052	2044	2046	2060	
1833	0	2050	2033	2050	2060	
1834	0	2051	2038	2043	2059	
1835	0	2050	2044	2050	2057	
1836	0	2045	2043	2051	2061	
1837	0	2048	2044	2054	2050	
1838	0	2050	2045	2051	2050	
1839	0	2047	2047	2051	2051	
1840	0	2040	2047	2042	2051	
1841	0	2042	2048	2044	2047	
1842	0	2041	2048	2045	2048	
1843	0	2039	2047	2044	2050	
1844	0	2044	2049	2049	2050	
1845	0	2048	2044	2046	2052	
1846	0	2047	2043	2046	2055	
1847	0	2047	2043	2050	2058	
1848	0	2047	2047	2047	2056	
1849	0	2054	2055	2057	2045	
1850	0	2063	2054	2059	2045	
1851	0	2060	2055	2060	2053	
1852	0	2055	2056	2057	2050	
1853	0	2054	2051	2051	2046	
1854	0	2048	2051	2042	2046	
1855	0	2047	2049	2046	2040	
1856	0	2060	2057	2035	2035	
1857	0	2053	2062	2040	2034	
1858	0	2043	2042	2036	2039	
1859	0	2040	2041	2046	2039	
1860	0	2042	2050	2042	2041	
1861	0	2045	2060	2051	2038	
1862	0	2054	2058	2049	2042	
1863	0	2050	2050	2048	2044	
1864	0	2048	2047	2053	2051	
1865	0	2046	2046	2048	2053	
1866	0	2052	2047	2051	2056	
1867	0	2054	2045	2050	2059	
1868	0	2051	2047	2048	2057	
1869	0	2051	2053	2054	2060	
1870	0	2057	2052	2045	2054	
1871	0	2054	2050	2054	2052	
1872	0	2056	2045	2043	2041	
1873	0	2058	2046	2049	2044	
1874	0	2055	2049	2049	2043	
1875	0	2050	2050	2054	2039	
1876	0	2051	2047	2049	2040	
1877	0	2050	2045	2050	2046	
1878	0	2046	2050	2045	2042	
1879	0	2042	2050	2044	2040	
1880	0	2044	2049	2044	2037	
1881	0	2045	2053	2046	2038	
1882	0	2043	2046	2038	2038	
1883	0	2039	2041	2050	2044	
1884	0	2043	2045	2042	2042	
1885	0	2048	2050	2053	2047	
1886	0	2050	2047	2053	2041	
1887	0	2053	2054	2050	2035	
1888	0	2055	2051	2053	2051	
1889	0	2054	2049	2043	2069	
1890	0	2053	2051	2057	2072	
1891	0	2055	2055	2056	2057	
1892	0	2052	2053	2046	2046	
1893	0	2057	2056	2053	2048	
1894	0	2052	2050	2037	2043	
1895	0	2047	2046	2046	2056	
1896	0	2050	2049	2051	2042	
1897	0	2053	2047	2051	2044	
1898	0	2049	2054	2049	2050	
1899	0	2046	2046	2045	2042	
1900	0	2045	2042	2046	2041	
1901	0	2044	2049	2041	2038	
1902	0	2042	2047	2047	2034	
1903	0	2042	2045	2038	2037	
1904	0	2044	2051	2046	2037	
1905	0	2045	2054	2040	2031	
1906	0	2048	2052	2049	2033	
1907	0	2049	2049	2040	2030	
1908	0	2054	2047	2051	2037	
1909	0	2056	2048	2047	2045	
1910	0	2053	2047	2049	2052	
1911	0	2052	2050	2051	2059	
1912	0	2055	2050	2055	2063	
1913	0	2057	2052	2053	2057	
1914	0	2059	2055	2058	2053	
1915	0	2057	2057	2052	2053	
1916	0	2053	2055	2056	2054	
1917	0	2053	2057	2053	2049	
1918	0	2047	2049	2051	2051	
1919	0	2044	2044	2050	2049	
1920	0	2044	2046	2045	2048	
1921	0	2042	2046	2046	2047	
1922	0	2042	2044	2034	2048	
1923	0	2038	2045	2044	2048	
1924	0	2046	2048	2036	2050	
1925	0	2044	2052	2045	2052	
1926	0	2044	2045	2037	2050	
1927	0	2046	2049	2044	2049	
1928	0	2050	2054	2043	2051	
1929	0	2052	2050	2049	2051	
1930	0	2052	2044	2042	2059	
1931	0	2056	2052	2050	2058	
1932	0	2053	2052	2042	2056	
1933	0	2053	2046	2052	2052	
1934	0	2051	2044	2045	2054	
1935	0	2045	2043	2056	2045	
1936	0	2045	2043	2054	2041	
1937	0	2048	2050	2046	2038	
1938	0	2048	2050	2047	2038	
1939	0	2047	2052	2037	2037	
1940	0	2045	2048	2044	2038	
1941	0	2045	2043	2048	2043	
1942	0	2046	2042	2052	2048	
1943	0	2045	2048	2050	2049	
1944	0	2046	2049	2046	2052	
1945	0	2049	2050	2048	2053	
1946	0	2045	2054	2044	2050	
1947	0	2058	2059	2051	2053	
1948	0	2058	2055	2051	2057	
1949	0	2057	2052	2058	2063	
1950	0	2053	2049	2053	2058	
1951	0	2055	2045	2052	2059	
1952	0	2052	2050	2051	2056	
1953	0	2054	2053	2035	2059	
1954	0	2055	2051	2049	2058	
1955	0	2056	2050	2054	2053	
1956	0	2053	2053	2046	2051	
1957	0	2044	2050	2050	2048	
1958	0	2043	2045	2040	2045	
1959	0	2045	2040	2046	2039	
1960	0	2038	2041	2041	2041	
1961	0	2044	2044	2044	2035	
1962	0	2046	2047	2048	2032	
1963	0	2044	2048	2036	2038	
1964	0	2050	2052	2049	2040	
1965	0	2046	2051	2044	2040	
1966	0	2052	2047	2053	2046	
1967	0	2051	2043	2056	2045	
1968	0	2051	2047	2057	2043	
1969	0	2052	2053	2051	2044	
1970	0	2051	2047	2047	2044	
1971	0	2051	2049	2052	2047	
1972	0	2056	2054	2035	2049	
1973	0	2055	2050	2042	2050	
1974	0	2057	2050	2046	2049	
1975	0	2055	2054	2052	2044	
1976	0	2050	2053	2049	2044	
1977	0	2052	2049	2044	2046	
1978	0	2046	2045	2052	2052	
1979	0	2044	2047	2042	2054	
1980	0	2042	2045	2044	2055	
1981	0	2040	2050	2046	2055	
1982	0	2044	2050	2049	2054	
1983	0	2046	2041	2050	2054	
1984	0	2047	2043	2034	2053	
1985	0	2044	2048	2045	2049	
1986	0	2051	2045	2048	2053	
1987	0	2052	2048	2055	2057	
1988	0	2049	2048	2049	2058	
1989	0	2051	2053	2055	2045	
1990	0	2055	2055	2056	2034	
1991	0	2056	2054	2054	2056	
1992	0	2058	2056	2055	2044	
1993	0	2056	2052	2048	2054	
1994	0	2057	2053	2051	2064	
1995	0	2054	2047	2039	2053	
1996	0	2045	2044	2035	2049	
1997	0	2042	2046	2039	2044	
1998	0	2043	2047	2046	2043	
1999	0	2042	2044	2046	2036	
2000	0	2041	2045	2038	2036	
2001	0	2038	2037	2048	2067	
2002	0	2042	2043	2040	2046	
2003	0	2042	2051	2047	2028	
2004	0	2048	2069	2051	2030	
2005	0	2060	2071	2056	2033	
2006	0	2044	2045	2046	2050	
2007	0	2040	2036	2040	2062	
2008	0	2048	2024	2049	2050	
2009	0	2060	2046	2042	2039	
2010	0	2063	2058	2053	2053	
2011	0	2064	2067	2046	2043	
2012	0	2056	2053	2054	2050	
2013	0	2053	2046	2048	2062	
2014	0	2051	2039	2047	2047	
2015	0	2046	2032	2048	2064	
2016	0	2047	2039	2044	2050	
2017	0	2049	2052	2048	2050	
2018	0	2041	2056	2034	2062	
2019	0	2041	2059	2041	2060	
2020	0	2047	2059	2037	2060	
2021	0	2048	2050	2050	2055	
2022	0	2048	2041	2050	2051	
2023	0	2048	2043	2060	2041	
2024	0	2052	2054	2054	2032	
2025	0	2054	2063	2047	2039	
2026	0	2050	2052	2049	2040	
2027	0	2046	2058	2039	2039	
2028	0	2049	2052	2048	2041	
2029	0	2054	2049	2050	2051	
2030	0	2056	2044	2056	2071	
2031	0	2057	2048	2054	2046	
2032	0	2050	2055	2046	2048	
2033	0	2046	2055	2046	2055	
2034	0	2051	2055	2033	2054	
2035	0	2054	2050	2048	2058	
2036	0	2054	2039	2043	2063	
2037	0	2050	2040	2051	2052	
2038	0	2047	2040	2049	2046	
2039	0	2044	2040	2053	2048	
2040	0	2043	2038	2052	2049	
2041	0	2040	2044	2042	2046	
2042	0	2049	2045	2049	2052	
2043	0	2049	2054	2051	2046	
2044	0	2049	2054	2045	2044	
2045	0	2051	2054	2040	2046	
2046	0	2050	2053	2045	2051	
2047	0	2047	2048	2041	2053	
2048	0	2049	2045	2055	2065	
2049	0	2051	2047	2054	2060	
2050	0	2053	2047	2045	2050	
2051	0	2055	2054	2054	2040	
2052	0	2052	2046	2047	2040	
2053	0	2052	2042	2058	2043	
2054	0	2057	2043	2058	2045	
2055	0	2053	2050	2058	2039	
2056	0	2051	2058	2048	2042	
2057	0	2047	2049	2048	2044	
2058	0	2042	2044	2044	2038	
2059	0	2042	2053	2033	2038	
2060	0	2047	2056	2040	2034	
2061	0	2044	2054	2032	2036	
2062	0	2042	2046	2031	2042	
2063	0	2039	2044	2032	2046	
2064	0	2044	2042	2044	2043	
2065	0	2049	2048	2050	2048	
2066	0	2051	2048	2059	2053	
2067	0	2055	2045	2064	2052	
2068	0	2052	2044	2054	2057	
2069	0	2051	2041	2050	2055	
2070	0	2053	2048	2053	2046	
2071	0	2054	2048	2056	2048	
2072	0	2051	2052	2053	2041	
2073	0	2058	2054	2047	2050	
2074	0	2057	2058	2055	2046	
2075	0	2053	2058	2049	2048	
2076	0	2056	2049	2044	2055	
2077	0	2053	2048	2052	2054	
2078	0	2046	2045	2035	2053	
2079	0	2038	2039	2042	2036	
2080	0	2037	2044	2043	2044	
2081	0	2038	2052	2042	2048	
2082	0	2041	2043	2046	2055	
2083	0	2043	2031	2032	2034	
2084	0	2045	2049	2044	2043	
2085	0	2053	2051	2043	2039	
2086	0	2053	2065	2045	2038	
2087	0	2057	2063	2058	2027	
2088	0	2059	2058	2061	2034	
2089	0	2059	2059	2045	2030	
2090	0	2058	2052	2059	2057	
2091	0	2057	2050	2059	2058	
2092	0	2062	2060	2053	2061	
2093	0	2059	2054	2053	2037	
2094	0	2046	2044	2038	2055	
2095	0	2038	2031	2034	2048	
2096	0	2034	2017	2043	2068	
2097	0	2037	2030	2045	2039	
2098	0	2045	2051	2046	2058	
2099	0	2051	2060	2047	2033	
2100	0	2056	2063	2042	2051	
2101	0	2050	2059	2052	2045	
2102	0	2046	2045	2056	2040	
2103	0	2047	2053	2053	2057	
2104	0	2049	2054	2046	2038	
2105	0	2047	2057	2044	2047	
2106	0	2044	2061	2038	2037	
2107	0	2053	2052	2051	2051	
2108	0	2054	2047	2048	2043	
2109	0	2048	2046	2044	2058	
2110	0	2048	2042	2052	2049	
2111	0	2057	2044	2048	2051	
2112	0	2056	2045	2053	2052	
2113	0	2052	2047	2048	2055	
2114	0	2056	2052	2051	2049	
2115	0	2057	2051	2048	2044	
2116	0	2049	2042	2052	2059	
2117	0	2048	2053	2040	2040	
2118	0	2045	2048	2046	2049	
2119	0	2039	2044	2044	2033	
2120	0	2044	2046	2041	2040	
2121	0	2046	2043	2052	2025	
2122	0	2047	2048	2052	2044	
2123	0	2044	2042	2045	2054	
2124	0	2045	2043	2054	2049	
2125	0	2048	2042	2052	2027	
2126	0	2046	2046	2050	2046	
2127	0	2051	2052	2044	2035	
2128	0	2053	2046	2057	2070	
2129	0	2056	2044	2050	2069	
2130	0	2054	2060	2054	2050	
2131	0	2052	2053	2036	2065	
2132	0	2051	2051	2047	2051	
2133	0	2052	2050	2048	2059	
2134	0	2048	2050	2054	2057	
2135	0	2051	2050	2039	2041	
2136	0	2054	2049	2050	2053	
2137	0	2051	2050	2049	2037	
2138	0	2043	2051	2044	2046	
2139	0	2046	2046	2048	2041	
2140	0	2045	2060	2041	2044	
2141	0	2046	2054	2041	2037	
2142	0	2044	2054	2048	2035	
2143	0	2041	2039	2048	2053	
2144	0	2038	2030	2046	2042	
2145	0	2047	2044	2051	2052	
2146	0	2053	2051	2037	2034	
2147	0	2055	2051	2054	2046	
2148	0	2056	2058	2053	2045	
2149	0	2055	2045	2050	2056	
2150	0	2054	2046	2056	2049	
2151	0	2056	2047	2047	2049	
2152	0	2053	2042	2052	2061	
2153	0	2053	2050	2056	2058	
2154	0	2053	2051	2055	2048	
2155	0	2056	2049	2050	2037	
2156	0	2054	2061	2046	2037	
2157	0	2049	2053	2035	2036	
2158	0	2042	2040	2040	2039	
2159	0	2038	2045	2041	2049	
2160	0	2038	2050	2039	2033	
2161	0	2043	2048	2047	2050	
2162	0	2043	2051	2033	2037	
2163	0	2040	2046	2035	2052	
2164	0	2041	2044	2043	2041	
2165	0	2045	2042	2048	2043	
2166	0	2052	2051	2053	2066	
2167	0	2058	2050	2051	2047	
2168	0	2058	2058	2060	2058	
2169	0	2053	2049	2058	2046	
2170	0	2057	2044	2054	2054	
2171	0	2053	2053	2056	2039	
2172	0	2053	2053	2056	2048	
2173	0	2057	2064	2052	2034	
2174	0	2054	2053	2042	2045	
2175	0	2053	2047	2038	2064	
2176	0	2048	2049	2038	2048	
2177	0	2047	2046	2037	2048	
2178	0	2047	2047	2046	2036	
2179	0	2043	2044	2045	2050	
2180	0	2045	2054	2045	2043	
2181	0	2046	2055	2038	2044	
2182	0	2049	2047	2053	2039	
2183	0	2045	2034	2042	2045	
2184	0	2039	2034	2048	2044	
2185	0	2045	2042	2045	2046	
2186	0	2048	2048	2052	2046	
2187	0	2062	2060	2049	2042	
2188	0	2051	2055	2045	2048	
2189	0	2050	2052	2042	2046	
2190	0	2053	2054	2045	2048	
2191	0	2054	2048	2041	2045	
2192	0	2054	2052	2046	2043	
2193	0	2054	2051	2049	2042	
2194	0	2054	2055	2053	2037	
2195	0	2054	2055	2054	2037	
2196	0	2050	2050	2038	2045	
2197	0	2050	2049	2045	2045	
2198	0	2050	2046	2040	2038	
2199	0	2045	2042	2047	2037	
2200	0	2044	2043	2047	2046	
2201	0	2042	2051	2053	2033	
2202	0	2045	2050	2054	2037	
2203	0	2044	2049	2042	2037	
2204	0	2045	2041	2054	2043	
2205	0	2044	2046	2042	2049	
2206	0	2048	2046	2051	2045	
2207	0	2051	2051	2055	2050	
2208	0	2053	2053	2058	2057	
2209	0	2051	2051	2049	2058	
2210	0	2051	2046	2040	2056	
2211	0	2055	2044	2045	2064	
2212	0	2053	2048	2039	2063	
2213	0	2052	2052	2047	2060	
2214	0	2052	2049	2039	2062	
2215	0	2052	2057	2046	2056	
2216	0	2053	2051	2048	2052	
2217	0	2047	2041	2052	2044	
2218	0	2047	2047	2049	2066	
2219	0	2044	2050	2032	2065	
2220	0	2044	2053	2046	2044	
2221	0	2046	2058	2050	2041	
2222	0	2048	2057	2053	2036	
2223	0	2044	2047	2051	2017	
2224	0	2039	2030	2045	2017	
2225	0	2045	2042	2048	2040	
2226	0	2049	2046	2046	2036	
2227	0	2052	2050	2047	2038	
2228	0	2050	2049	2041	2038	
2229	0	2053	2045	2052	2041	
2230	0	2052	2045	2057	2050	
2231	0	2054	2043	2056	2049	
2232	0	2052	2047	2052	2050	
2233	0	2056	2058	2037	2039	
2234	0	2055	2063	2045	2039	
2235	0	2049	2061	2041	2042	
2236	0	2054	2052	2051	2040	
2237	0	2046	2050	2050	2034	
2238	0	2044	2047	2044	2036	
2239	0	2043	2047	2049	2033	
2240	0	2040	2044	2035	2040	
2241	0	2041	2045	2047	2044	
2242	0	2044	2048	2048	2042	
2243	0	2047	2051	2055	2042	
2244	0	2051	2045	2051	2042	
2245	0	2056	2047	2052	2037	
2246	0	2057	2050	2052	2033	
2247	0	2053	2048	2050	2034	
2248	0	2049	2051	2051	2037	
2249	0	2050	2041	2053	2061	
2250	0	2053	2046	2049	2055	
2251	0	2055	2054	2044	2040	
2252	0	2055	2058	2049	2045	
2253	0	2059	2061	2045	2044	
2254	0	2055	2052	2051	2044	
2255	0	2051	2043	2043	2042	
2256	0	2044	2042	2053	2047	
2257	0	2046	2042	2054	2046	
2258	0	2047	2043	2047	2041	
2259	0	2041	2044	2048	2053	
2260	0	2042	2045	2046	2049	
2261	0	2039	2045	2041	2048	
2262	0	2039	2039	2045	2056	
2263	0	2043	2042	2040	2038	
2264	0	2047	2046	2048	2044	
2265	0	2051	2043	2051	2026	
2266	0	2047	2059	2054	2049	
2267	0	2049	2044	2052	2055	
2268	0	2052	2048	2053	2061	
2269	0	2052	2062	2038	2039	
2270	0	2056	2056	2047	2040	
2271	0	2056	2058	2046	2046	
2272	0	2052	2050	2045	2059	
2273	0	2058	2050	2051	2043	
2274	0	2056	2055	2058	2032	
2275	0	2055	2050	2042	2056	
2276	0	2052	2055	2053	2047	
2277	0	2046	2056	2054	2058	
2278	0	2046	2049	2054	2049	
2279	0	2046	2048	2051	2067	
2280	0	2037	2038	2044	2047	
2281	0	2039	2032	2037	2037	
2282	0	2042	2036	2038	2029	
2283	0	2041	2041	2042	2046	
2284	0	2044	2053	2040	2029	
2285	0	2043	2049	2031	2042	
2286	0	2045	2050	2044	2031	
2287	0	2061	2057	2041	2049	
2288	0	2043	2038	2041	2063	
2289	0	2050	2054	2060	2064	
2290	0	2063	2056	2062	2042	
2291	0	2053	2049	2042	2053	
2292	0	2060	2050	2051	2058	
2293	0	2069	2065	2044	2029	
2294	0	2064	2065	2053	2021	
2295	0	2056	2054	2045	2025	
2296	0	2056	2049	2050	2029	
2297	0	2047	2051	2036	2035	
2298	0	2040	2046	2039	2043	
2299	0	2045	2047	2038	2044	
2300	0	2043	2048	2052	2049	
2301	0	2040	2050	2046	2050	
2302	0	2043	2047	2051	2053	
2303	0	2042	2042	2052	2054	
2304	0	2048	2045	2048	2056	
2305	0	2049	2047	2053	2061	
2306	0	2051	2044	2053	2063	
2307	0	2051	2048	2054	2054	
2308	0	2052	2046	2053	2051	
2309	0	2050	2045	2051	2053	
2310	0	2052	2052	2055	2051	
2311	0	2053	2049	2048	2042	
2312	0	2052	2052	2040	2040	
2313	0	2053	2055	2047	2045	
2314	0	2055	2055	2046	2049	
2315	0	2048	2049	2055	2059	
2316	0	2050	2044	2047	2050	
2317	0	2049	2038	2052	2047	
2318	0	2048	2038	2043	2050	
2319	0	2044	2039	2044	2048	
2320	0	2041	2041	2029	2051	
2321	0	2041	2053	2040	2037	
2322	0	2039	2058	2032	2034	
2323	0	2040	2059	2039	2045	
2324	0	2044	2067	2044	2036	
2325	0	2051	2066	2050	2030	
2326	0	2051	2057	2052	2043	
2327	0	2056	2035	2059	2045	
2328	0	2054	2031	2060	2043	
2329	0	2059	2041	2058	2048	
2330	0	2058	2041	2059	2056	
2331	0	2053	2044	2051	2053	
2332	0	2054	2052	2056	2038	
2333	0	2060	2053	2050	2032	
2334	0	2062	2045	2053	2053	
2335	0	2057	2048	2049	2050	
2336	0	2052	2049	2052	2037	
2337	0	2045	2052	2036	2041	
2338	0	2041	2055	2046	2048	
2339	0	2043	2052	2040	2060	
2340	0	2041	2047	2042	2060	
2341	0	2044	2060	2036	2044	
2342	0	2044	2064	2049	2041	
2343	0	2048	2059	2044	2038	
2344	0	2050	2050	2047	2045	
2345	0	2052	2049	2037	2037	
2346	0	2045	2049	2044	2039	
2347	0	2044	2056	2034	2030	
2348	0	2047	2052	2040	2040	
2349	0	2055	2049	2043	2043	
2350	0	2054	2051	2058	2042	
2351	0	2055	2050	2058	2046	
2352	0	2053	2045	2057	2045	
2353	0	2049	2044	2052	2041	
2354	0	2047	2043	2051	2048	
2355	0	2047	2045	2053	2049	
2356	0	2047	2049	2058	2054	
2357	0	2050	2060	2057	2052	
2358	0	2053	2055	2059	2053	
2359	0	2052	2042	2055	2061	
2360	0	2047	2042	2043	2056	
2361	0	2050	2045	2048	2050	
2362	0	2046	2041	2040	2050	
2363	0	2050	2040	2048	2058	
2364	0	2046	2041	2053	2073	
2365	0	2053	2044	2055	2069	
2366	0	2052	2050	2056	2048	
2367	0	2050	2048	2037	2056	
2368	0	2050	2047	2051	2067	
2369	0	2049	2047	2049	2066	
2370	0	2052	2060	2054	2047	
2371	0	2051	2054	2042	2056	
2372	0	2051	2048	2045	2057	
2373	0	2054	2049	2046	2047	
2374	0	2051	2058	2051	2031	
2375	0	2048	2053	2042	2022	
2376	0	2045	2042	2055	2037	
2377	0	2049	2047	2046	2042	
2378	0	2052	2054	2040	2057	
2379	0	2049	2056	2041	2037	
2380	0	2044	2055	2026	2036	
2381	0	2038	2051	2024	2033	
2382	0	2048	2060	2034	2035	
2383	0	2037	2048	2033	2032	
2384	0	2039	2047	2031	2038	
2385	0	2043	2048	2038	2039	
2386	0	2048	2049	2040	2040	
2387	0	2049	2049	2040	2044	
2388	0	2052	2040	2047	2060	
2389	0	2054	2046	2036	2055	
2390	0	2054	2050	2049	2056	
2391	0	2053	2054	2040	2057	
2392	0	2059	2059	2054	2056	
2393	0	2056	2051	2050	2060	
2394	0	2053	2045	2052	2060	
2395	0	2046	2046	2058	2047	
2396	0	2045	2031	2051	2053	
2397	0	2044	2031	2058	2053	
2398	0	2045	2035	2038	2054	
2399	0	2037	2030	2045	2073	
2400	0	2042	2042	2034	2055	
2401	0	2045	2052	2049	2049	
2402	0	2041	2044	2037	2058	
2403	0	2040	2040	2039	2054	
2404	0	2043	2041	2044	2049	
2405	0	2044	2044	2044	2060	
2406	0	2044	2041	2048	2063	
2407	0	2045	2039	2042	2068	
2408	0	2054	2035	2057	2057	
2409	0	2057	2044	2058	2048	
2410	0	2060	2056	2059	2056	
2411	0	2058	2062	2052	2068	
2412	0	2060	2067	2047	2049	
2413	0	2058	2073	2051	2037	
2414	0	2061	2075	2055	2031	
2415	0	2062	2074	2055	2028	
2416	0	2053	2066	2048	2024	
2417	0	2053	2056	2046	2037	
2418	0	2049	2050	2048	2046	
2419	0	2046	2049	2049	2040	
2420	0	2043	2056	2042	2033	
2421	0	2050	2060	2038	2044	
2422	0	2048	2051	2044	2056	
2423	0	2043	2050	2043	2052	
2424	0	2050	2044	2051	2056	
2425	0	2050	2030	2045	2062	
2426	0	2048	2025	2053	2055	
2427	0	2043	2038	2046	2051	
2428	0	2048	2050	2049	2049	
2429	0	2052	2048	2043	2057	
2430	0	2052	2045	2053	2054	
2431	0	2051	2037	2051	2053	
2432	0	2051	2042	2053	2041	
2433	0	2055	2055	2048	2038	
2434	0	2058	2056	2053	2043	
2435	0	2054	2049	2049	2046	
2436	0	2048	2046	2046	2048	
2437	0	2041	2042	2053	2056	
2438	0	2042	2041	2048	2055	
2439	0	2046	2045	2046	2048	
2440	0	2040	2041	2034	2045	
2441	0	2047	2045	2046	2050	
2442	0	2056	2058	2035	2050	
2443	0	2056	2050	2047	2047	
2444	0	2049	2052	2042	2041	
2445	0	2050	2052	2054	2040	
2446	0	2046	2049	2051	2059	
2447	0	2051	2047	2057	2068	
2448	0	2053	2050	2052	2067	
2449	0	2055	2044	2039	2059	
2450	0	2049	2052	2045	2053	
2451	0	2044	2053	2048	2056	
2452	0	2045	2052	2050	2063	
2453	0	2049	2049	2045	2060	
2454	0	2054	2049	2052	2053	
2455	0	2060	2063	2053	2052	
2456	0	2054	2055	2043	2053	
2457	0	2049	2055	2049	2045	
2458	0	2048	2053	2049	2053	
2459	0	2042	2044	2047	2057	
2460	0	2038	2042	2046	2048	
2461	0	2046	2041	2041	2047	
2462	0	2043	2037	2048	2045	
2463	0	2047	2049	2038	2043	
2464	0	2048	2052	2047	2044	
2465	0	2049	2044	2044	2053	
2466	0	2053	2048	2052	2051	
2467	0	2050	2053	2043	2063	
2468	0	2047	2042	2052	2056	
2469	0	2049	2041	2056	2052	
2470	0	2053	2047	2059	2051	
2471	0	2051	2049	2054	2058	
2472	0	2056	2054	2049	2046	
2473	0	2060	2061	2054	2036	
2474	0	2052	2061	2042	2032	
2475	0	2051	2057	2048	2027	
2476	0	2049	2057	2040	2029	
2477	0	2049	2054	2046	2031	
2478	0	2051	2052	2032	2039	
2479	0	2046	2051	2045	2038	
2480	0	2041	2052	2033	2049	
2481	0	2039	2041	2040	2055	
2482	0	2042	2042	2039	2046	
2483	0	2047	2041	2051	2044	
2484	0	2046	2043	2048	2048	
2485	0	2048	2039	2053	2051	
2486	0	2046	2040	2054	2047	
2487	0	2048	2046	2051	2044	
2488	0	2057	2054	2052	2046	
2489	0	2055	2051	2036	2045	
2490	0	2052	2051	2051	2045	
2491	0	2056	2052	2046	2045	
2492	0	2054	2043	2050	2049	
2493	0	2053	2046	2050	2047	
2494	0	2059	2053	2053	2049	
2495	0	2056	2053	2060	2046	
2496	0	2049	2052	2043	2042	
2497	0	2048	2053	2046	2038	
2498	0	2043	2055	2047	2035	
2499	0	2045	2046	2050	2039	
2500	0	2048	2045	2042	2037	
2501	0	2048	2048	2042	2035	
2502	0	2044	2042	2037	2045	
2503	0	2044	2047	2039	2050	
2504	0	2044	2053	2040	2050	
2505	0	2051	2060	2049	2047	
2506	0	2047	2059	2046	2053	
2507	0	2051	2051	2052	2052	
2508	0	2051	2045	2048	2050	
2509	0	2056	2054	2049	2025	
2510	0	2059	2054	2046	2044	
2511	0	2052	2053	2046	2039	
2512	0	2051	2046	2050	2072	
2513	0	2054	2050	2051	2065	
2514	0	2057	2054	2046	2054	
2515	0	2050	2054	2057	2047	
2516	0	2049	2055	2049	2036	
2517	0	2049	2047	2051	2057	
2518	0	2047	2041	2048	2057	
2519	0	2046	2046	2047	2051	
2520	0	2047	2050	2039	2035	
2521	0	2047	2047	2045	2030	
2522	0	2048	2047	2058	2036	
2523	0	2044	2040	2043	2056	
2524	0	2046	2050	2043	2050	
2525	0	2043	2049	2055	2025	
2526	0	2045	2045	2040	2028	
2527	0	2046	2054	2043	2039	
2528	0	2044	2043	2042	2046	
2529	0	2056	2045	2036	2050	
2530	0	2058	2048	2059	2055	
2531	0	2055	2058	2053	2052	
2532	0	2060	2066	2051	2052	
2533	0	2062	2063	2054	2066	
2534	0	2060	2063	2053	2050	
2535	0	2049	2054	2048	2046	
2536	0	2049	2043	2037	2059	
2537	0	2041	2034	2050	2043	
2538	0	2046	2030	2049	2029	
2539	0	2043	2042	2039	2035	
2540	0	2040	2041	2049	2046	
2541	0	2045	2045	2038	2052	
2542	0	2042	2047	2043	2045	
2543	0	2042	2047	2037	2054	
2544	0	2044	2043	2046	2062	
2545	0	2050	2051	2033	2053	
2546	0	2048	2055	2041	2049	
2547	0	2054	2059	2044	2053	
2548	0	2054	2055	2056	2055	
2549	0	2056	2053	2053	2061	
2550	0	2054	2054	2061	2062	
2551	0	2056	2050	2059	2058	
2552	0	2058	2047	2062	2047	
2553	0	2056	2033	2059	2048	
2554	0	2049	2035	2048	2042	
2555	0	2054	2049	2045	2037	
2556	0	2048	2055	2047	2040	
2557	0	2052	2056	2051	2042	
2558	0	2049	2048	2052	2040	
2559	0	2046	2049	2046	2047	
2560	0	2042	2038	2045	2053	
2561	0	2040	2039	2041	2050	
2562	0	2034	2041	2044	2050	
2563	0	2036	2043	2040	2048	
2564	0	2047	2046	2045	2046	
2565	0	2050	2050	2045	2049	
2566	0	2050	2049	2045	2043	
2567	0	2050	2053	2050	2049	
2568	0	2052	2049	2055	2055	
2569	0	2053	2057	2052	2052	
2570	0	2061	2056	2044	2061	
2571	0	2060	2052	2047	2067	
2572	0	2056	2050	2045	2060	
2573	0	2058	2052	2049	2056	
2574	0	2052	2053	2056	2050	
2575	0	2050	2058	2059	2048	
2576	0	2047	2056	2057	2053	
2577	0	2039	2047	2050	2059	
2578	0	2045	2046	2054	2043	
2579	0	2044	2037	2041	2034	
2580	0	2043	2038	2042	2037	
2581	0	2047	2044	2029	2036	
2582	0	2047	2041	2040	2023	
2583	0	2050	2042	2034	2027	
2584	0	2046	2039	2049	2037	
2585	0	2049	2039	2042	2037	
2586	0	2049	2042	2052	2055	
2587	0	2047	2044	2040	2064	
2588	0	2054	2058	2046	2064	
2589	0	2051	2058	2041	2070	
2590	0	2056	2060	2045	2069	
2591	0	2056	2053	2046	2061	
2592	0	2042	2053	2053	2050	
2593	0	2054	2058	2046	2031	
2594	0	2047	2058	2047	2031	
2595	0	2045	2046	2037	2030	
2596	0	2050	2048	2051	2039	
2597	0	2056	2050	2045	2041	
2598	0	2046	2043	2051	2052	
2599	0	2040	2043	2042	2058	
2600	0	2046	2045	2050	2062	
2601	0	2042	2041	2056	2048	
2602	0	2045	2050	2053	2048	
2603	0	2047	2058	2044	2056	
2604	0	2051	2059	2050	2056	
2605	0	2050	2055	2037	2049	
2606	0	2054	2044	2048	2047	
2607	0	2054	2046	2053	2036	
2608	0	2054	2045	2047	2041	
2609	0	2054	2046	2051	2066	
2610	0	2056	2057	2047	2060	
2611	0	2058	2060	2056	2048	
2612	0	2056	2052	2053	2044	
2613	0	2053	2045	2051	2039	
2614	0	2050	2050	2045	2050	
2615	0	2048	2053	2042	2055	
2616	0	2046	2048	2048	2050	
2617	0	2044	2038	2048	2037	
2618	0	2046	2041	2040	2048	
2619	0	2048	2045	2044	2060	
2620	0	2041	2045	2047	2056	
2621	0	2042	2051	2045	2051	
2622	0	2042	2055	2052	2049	
2623	0	2044	2044	2040	2050	
2624	0	2049	2044	2053	2045	
2625	0	2059	2057	2054	2044	
2626	0	2060	2056	2057	2046	
2627	0	2050	2050	2044	2052	
2628	0	2045	2051	2040	2057	
2629	0	2045	2047	2046	2059	
2630	0	2048	2045	2046	2066	
2631	0	2046	2042	2048	2071	
2632	0	2054	2042	2051	2063	
2633	0	2056	2048	2048	2062	
2634	0	2057	2048	2061	2044	
2635	0	2052	2049	2055	2022	
2636	0	2053	2043	2039	2038	
2637	0	2047	2042	2048	2048	
2638	0	2046	2048	2053	2078	
2639	0	2047	2053	2048	2063	
2640	0	2043	2049	2049	2035	
2641	0	2050	2058	2039	2036	
2642	0	2047	2042	2044	2038	
2643	0	2040	2034	2047	2059	
2644	0	2043	2051	2045	2051	
2645	0	2048	2050	2050	2050	
2646	0	2048	2045	2037	2040	
2647	0	2047	2052	2045	2050	
2648	0	2046	2053	2045	2030	
2649	0	2043	2056	2042	2047	
2650	0	2047	2059	2042	2047	
2651	0	2053	2050	2057	2052	
2652	0	2058	2054	2055	2052	
2653	0	2060	2057	2052	2037	
2654	0	2060	2048	2045	2057	
2655	0	2054	2046	2058	2048	
2656	0	2053	2053	2059	2055	
2657	0	2050	2049	2054	2046	
2658	0	2048	2044	2041	2048	
2659	0	2045	2051	2045	2038	
2660	0	2041	2044	2046	2028	
2661	0	2045	2041	2042	2044	
2662	0	2044	2051	2046	2040	
2663	0	2046	2046	2030	2046	
2664	0	2043	2046	2041	2040	
2665	0	2045	2047	2043	2054	
2666	0	2049	2047	2041	2045	
2667	0	2050	2050	2052	2058	
2668	0	2053	2048	2047	2053	
2669	0	2055	2046	2042	2061	
2670	0	2054	2055	2056	2046	
2671	0	2058	2047	2056	2060	
2672	0	2052	2048	2048	2045	
2673	0	2057	2049	2059	2054	
2674	0	2053	2046	2042	2041	
2675	0	2050	2050	2052	2055	
2676	0	2053	2046	2054	2042	
2677	0	2048	2041	2052	2052	
2678	0	2047	2048	2057	2038	
2679	0	2050	2045	2041	2051	
2680	0	2045	2043	2050	2044	
2681	0	2044	2052	2046	2046	
2682	0	2045	2049	2046	2046	
2683	0	2043	2049	2034	2025	
2684	0	2046	2057	2045	2047	
2685	0	2044	2053	2045	2047	
2686	0	2053	2053	2048	2045	
2687	0	2053	2053	2043	2050	
2688	0	2050	2048	2051	2042	
2689	0	2050	2043	2042	2061	
2690	0	2053	2055	2049	2044	
2691	0	2052	2056	2036	2060	
2692	0	2055	2050	2049	2053	
2693	0	2057	2054	2052	2051	
2694	0	2054	2060	2052	2061	
2695	0	2051	2052	2050	2040	
2696	0	2048	2032	2050	2060	
2697	0	2042	2030	2060	2039	
2698	0	2053	2045	2053	2044	
2699	0	2048	2054	2050	2033	
2700	0	2045	2043	2056	2052	
2701	0	2041	2040	2037	2033	
2702	0	2043	2049	2050	2040	
2703	0	2041	2044	2041	2051	
2704	0	2041	2043	2042	2042	
2705	0	2044	2062	2034	2050	
2706	0	2052	2060	2046	2043	
2707	0	2054	2058	2047	2052	
2708	0	2052	2059	2053	2059	
2709	0	2054	2057	2043	2053	
2710	0	2059	2052	2050	2051	
2711	0	2054	2047	2050	2039	
2712	0	2049	2043	2053	2057	
2713	0	2051	2035	2044	2056	
2714	0	2053	2041	2057	2047	
2715	0	2055	2050	2052	2052	
2716	0	2051	2046	2053	2042	
2717	0	2047	2043	2045	2054	
2718	0	2054	2051	2054	2042	
2719	0	2050	2055	2042	2037	
2720	0	2046	2052	2049	2034	
2721	0	2047	2056	2046	2032	
2722	0	2045	2046	2035	2040	
2723	0	2048	2044	2048	2056	
2724	0	2048	2046	2050	2049	
2725	0	2046	2043	2044	2039	
2726	0	2047	2055	2043	2049	
2727	0	2050	2052	2035	2038	
2728	0	2049	2049	2050	2054	
2729	0	2047	2043	2048	2053	
2730	0	2045	2041	2051	2062	
2731	0	2051	2038	2039	2066	
2732	0	2052	2041	2057	2051	
2733	0	2055	2049	2055	2047	
2734	0	2054	2058	2054	2049	
2735	0	2054	2051	2048	2052	
2736	0	2052	2046	2049	2062	
2737	0	2055	2054	2046	2045	
2738	0	2050	2052	2033	2036	
2739	0	2043	2051	2041	2046	
2740	0	2042	2066	2040	2042	
2741	0	2044	2052	2046	2050	
2742	0	2047	2041	2036	2036	
2743	0	2055	2052	2056	2043	
2744	0	2046	2043	2052	2045	
2745	0	2043	2039	2041	2046	
2746	0	2043	2039	2049	2048	
2747	0	2048	2051	2045	2025	
2748	0	2052	2047	2059	2048	
2749	0	2052	2055	2048	2043	
2750	0	2058	2054	2056	2066	
2751	0	2051	2047	2057	2051	
2752	0	2052	2051	2047	2056	
2753	0	2055	2055	2050	2047	
2754	0	2059	2056	2041	2043	
2755	0	2053	2042	2050	2073	
2756	0	2051	2050	2050	2051	
2757	0	2045	2045	2042	2035	
2758	0	2043	2045	2048	2043	
2759	0	2044	2046	2044	2030	
2760	0	2046	2050	2044	2043	
2761	0	2047	2045	2039	2034	
2762	0	2043	2044	2058	2048	
2763	0	2041	2046	2057	2042	
2764	0	2047	2041	2054	2047	
2765	0	2046	2046	2042	2054	
2766	0	2046	2054	2042	2045	
2767	0	2044	2048	2045	2059	
2768	0	2049	2045	2043	2045	
2769	0	2053	2060	2043	2054	
2770	0	2056	2058	2044	2058	
2771	0	2053	2057	2050	2043	
2772	0	2058	2063	2050	2049	
2773	0	2058	2053	2055	2040	
2774	0	2052	2037	2041	2064	
2775	0	2054	2042	2051	2049	
2776	0	2054	2054	2043	2034	
2777	0	2049	2046	2052	2060	
2778	0	2048	2047	2044	2048	
2779	0	2045	2046	2053	2054	
2780	0	2041	2046	2045	2036	
2781	0	2045	2045	2049	2046	
2782	0	2048	2049	2038	2043	
2783	0	2048	2052	2053	2034	
2784	0	2046	2046	2048	2050	
2785	0	2045	2052	2054	2043	
2786	0	2048	2049	2044	2045	
2787	0	2050	2046	2050	2048	
2788	0	2050	2045	2049	2043	
2789	0	2053	2049	2048	2060	
2790	0	2057	2044	2057	2050	
2791	0	2058	2049	2058	2055	
2792	0	2059	2055	2060	2054	
2793	0	2054	2054	2047	2042	
2794	0	2052	2051	2056	2053	
2795	0	2047	2050	2045	2040	
2796	0	2046	2057	2044	2037	
2797	0	2045	2045	2048	2053	
2798	0	2047	2039	2040	2042	
2799	0	2050	2049	2045	2051	
2800	0	2041	2051	2026	2039	
2801	0	2043	2047	2042	2049	
2802	0	2045	2044	2047	2040	
2803	0	2044	2045	2050	2045	
2804	0	2042	2045	2044	2046	
2805	0	2043	2053	2039	2044	
2806	0	2050	2048	2052	2046	
2807	0	2049	2047	2048	2041	
2808	0	2048	2053	2054	2060	
2809	0	2052	2049	2040	2052	
2810	0	2059	2050	2052	2054	
2811	0	2059	2055	2056	2042	
2812	0	2056	2050	2061	2058	
2813	0	2056	2045	2044	2062	
2814	0	2049	2043	2054	2074	
2815	0	2046	2051	2055	2071	
2816	0	2045	2042	2056	2048	
2817	0	2050	2043	2041	2053	
2818	0	2052	2058	2045	2030	
2819	0	2049	2052	2043	2049	
2820	0	2040	2050	2035	2040	
2821	0	2043	2048	2049	2043	
2822	0	2045	2045	2031	2047	
2823	0	2042	2051	2042	2042	
2824	0	2047	2045	2048	2041	
2825	0	2049	2051	2045	2033	
2826	0	2049	2055	2051	2047	
2827	0	2053	2050	2044	2038	
2828	0	2057	2044	2056	2055	
2829	0	2055	2052	2050	2046	
2830	0	2059	2052	2055	2050	
2831	0	2057	2048	2058	2048	
2832	0	2053	2050	2062	2047	
2833	0	2056	2050	2050	2050	
2834	0	2056	2048	2049	2038	
2835	0	2054	2059	2038	2053	
2836	0	2052	2048	2053	2040	
2837	0	2052	2045	2049	2058	
2838	0	2048	2051	2047	2038	
2839	0	2043	2044	2051	2039	
2840	0	2038	2043	2037	2048	
2841	0	2039	2044	2049	2051	
2842	0	2043	2042	2047	2045	
2843	0	2043	2054	2047	2039	
2844	0	2045	2050	2052	2048	
2845	0	2048	2049	2038	2038	
2846	0	2054	2055	2047	2051	
2847	0	2051	2051	2049	2042	
2848	0	2051	2045	2052	2055	
2849	0	2057	2056	2039	2049	
2850	0	2058	2052	2034	2059	
2851	0	2057	2047	2048	2049	
2852	0	2053	2052	2048	2053	
2853	0	2051	2047	2054	2056	
2854	0	2052	2048	2044	2048	
2855	0	2049	2054	2039	2052	
2856	0	2054	2048	2051	2047	
2857	0	2051	2051	2048	2049	
2858	0	2044	2049	2048	2038	
2859	0	2041	2045	2044	2051	
2860	0	2042	2044	2033	2034	
2861	0	2048	2050	2047	2049	
2862	0	2048	2043	2052	2036	
2863	0	2044	2047	2048	2044	
2864	0	2044	2046	2047	2035	
2865	0	2041	2044	2035	2051	
2866	0	2051	2057	2054	2039	
2867	0	2052	2049	2057	2052	
2868	0	2050	2046	2057	2042	
2869	0	2056	2056	2049	2059	
2870	0	2060	2050	2054	2047	
2871	0	2055	2048	2052	2058	
2872	0	2056	2056	2050	2046	
2873	0	2054	2046	2059	2049	
2874	0	2053	2046	2042	2054	
2875	0	2050	2052	2050	2044	
2876	0	2048	2047	2048	2055	
2877	0	2045	2039	2051	2039	
2878	0	2051	2053	2040	2049	
2879	0	2043	2047	2050	2038	
2880	0	2042	2045	2044	2048	
2881	0	2042	2052	2044	2041	
2882	0	2042	2049	2031	2038	
2883	0	2043	2046	2038	2057	
2884	0	2046	2045	2046	2049	
2885	0	2046	2046	2037	2039	
2886	0	2049	2048	2054	2053	
2887	0	2049	2046	2055	2040	
2888	0	2050	2055	2051	2054	
2889	0	2057	2050	2056	2045	
2890	0	2058	2049	2061	2045	
2891	0	2058	2052	2043	2049	
2892	0	2053	2047	2042	2042	
2893	0	2050	2051	2048	2053	
2894	0	2053	2052	2043	2042	
2895	0	2053	2057	2044	2045	
2896	0	2049	2047	2043	2054	
2897	0	2048	2049	2046	2040	
2898	0	2050	2048	2051	2050	
2899	0	2045	2046	2051	2056	
2900	0	2036	2044	2043	2053	
2901	0	2038	2043	2044	2046	
2902	0	2042	2043	2048	2044	
2903	0	2045	2044	2050	2043	
2904	0	2043	2048	2047	2037	
2905	0	2047	2045	2053	2040	
2906	0	2050	2049	2052	2054	
2907	0	2052	2048	2058	2055	
2908	0	2052	2045	2058	2052	
2909	0	2055	2052	2060	2052	
2910	0	2061	2050	2054	2043	
2911	0	2060	2053	2059	2039	
2912	0	2055	2057	2057	2043	
2913	0	2055	2053	2051	2042	
2914	0	2058	2053	2054	2041	
2915	0	2052	2054	2038	2040	
2916	0	2046	2048	2051	2038	
2917	0	2049	2045	2046	2038	
2918	0	2044	2045	2043	2038	
2919	0	2046	2044	2041	2038	
2920	0	2042	2045	2033	2044	
2921	0	2044	2048	2048	2047	
2922	0	2044	2045	2051	2042	
2923	0	2046	2051	2053	2041	
2924	0	2045	2046	2051	2039	
2925	0	2044	2049	2040	2041	
2926	0	2050	2048	2050	2047	
2927	0	2052	2047	2045	2049	
2928	0	2051	2051	2050	2054	
2929	0	2053	2047	2054	2051	
2930	0	2054	2052	2060	2051	
2931	0	2051	2050	2051	2052	
2932	0	2056	2049	2049	2054	
2933	0	2058	2051	2051	2051	
2934	0	2053	2053	2050	2049	
2935	0	2050	2050	2050	2039	
2936	0	2049	2047	2036	2044	
2937	0	2046	2052	2045	2043	
2938	0	2046	2051	2033	2043	
2939	0	2048	2048	2040	2044	
2940	0	2046	2053	2041	2041	
2941	0	2046	2046	2046	2039	
2942	0	2043	2045	2046	2044	
2943	0	2046	2043	2039	2050	
2944	0	2045	2041	2043	2050	
2945	0	2045	2041	2040	2043	
2946	0	2047	2045	2054	2049	
2947	0	2050	2051	2055	2053	
2948	0	2053	2055	2060	2055	
2949	0	2054	2058	2059	2053	
2950	0	2052	2053	2048	2056	
2951	0	2053	2053	2055	2061	
2952	0	2056	2050	2043	2063	
2953	0	2055	2050	2048	2059	
2954	0	2052	2045	2053	2057	
2955	0	2048	2047	2058	2057	
2956	0	2050	2049	2049	2051	
2957	0	2053	2054	2042	2048	
2958	0	2053	2050	2039	2045	
2959	0	2048	2047	2032	2045	
2960	0	2045	2045	2043	2050	
2961	0	2047	2048	2047	2049	
2962	0	2045	2046	2053	2052	
2963	0	2048	2048	2052	2050	
2964	0	2048	2049	2050	2049	
2965	0	2047	2047	2050	2050	
2966	0	2044	2047	2039	2054	
2967	0	2046	2048	2044	2057	
2968	0	2045	2049	2045	2061	
2969	0	2053	2048	2054	2054	
2970	0	2058	2049	2053	2055	
2971	0	2054	2048	2043	2061	
2972	0	2054	2045	2048	2060	
2973	0	2054	2051	2045	2056	
2974	0	2056	2048	2056	2056	
2975	0	2053	2049	2055	2053	
2976	0	2050	2050	2046	2052	
2977	0	2051	2050	2050	2055	
2978	0	2046	2046	2043	2046	
2979	0	2048	2048	2051	2050	
2980	0	2045	2040	2036	2051	
2981	0	2044	2043	2045	2051	
2982	0	2039	2047	2051	2047	
2983	0	2043	2045	2046	2050	
2984	0	2041	2043	2049	2051	
2985	0	2046	2051	2037	2050	
2986	0	2046	2060	2047	2051	
2987	0	2047	2051	2049	2043	
2988	0	2052	2049	2054	2044	
2989	0	2056	2050	2056	2048	
2990	0	2058	2052	2050	2049	
2991	0	2057	2049	2053	2055	
2992	0	2057	2052	2043	2058	
2993	0	2056	2053	2050	2057	
2994	0	2057	2050	2042	2058	
2995	0	2049	2054	2048	2056	
2996	0	2045	2049	2042	2054	
2997	0	2043	2051	2047	2055	
2998	0	2047	2050	2046	2053	
2999	0	2049	2054	2048	2049	
3000	0	2046	2047	2049	2041	
3001	0	2046	2055	2053	2036	
3002	0	2048	2053	2050	2036	
3003	0	2047	2051	2051	2035	
3004	0	2046	2057	2050	2034	
3005	0	2047	2048	2052	2033	
3006	0	2048	2049	2053	2040	
3007	0	2048	2048	2054	2049	
3008	0	2050	2048	2051	2053	
3009	0	2053	2045	2055	2058	
3010	0	2055	2049	2052	2056	
3011	0	2058	2048	2054	2059	
3012	0	2055	2047	2049	2062	
3013	0	2051	2046	2050	2061	
3014	0	2049	2042	2052	2056	
3015	0	2048	2048	2052	2044	
3016	0	2050	2046	2053	2039	
3017	0	2049	2043	2052	2037	
3018	0	2050	2050	2045	2037	
3019	0	2043	2048	2047	2045	
3020	0	2043	2043	2042	2053	
3021	0	2045	2043	2047	2052	
3022	0	2043	2045	2050	2054	
3023	0	2050	2048	2057	2054	
3024	0	2043	2050	2049	2050	
3025	0	2047	2050	2045	2049	
3026	0	2051	2046	2050	2051	
3027	0	2052	2047	2041	2054	
3028	0	2051	2045	2051	2055	
3029	0	2052	2049	2053	2053	
3030	0	2054	2050	2059	2051	
3031	0	2057	2052	2058	2056	
3032	0	2057	2057	2052	2053	
3033	0	2058	2056	2052	2054	
3034	0	2051	2055	2039	2056	
3035	0	2049	2053	2050	2057	
3036	0	2048	2055	2040	2053	
3037	0	2050	2057	2050	2052	
3038	0	2046	2046	2034	2050	
3039	0	2048	2045	2044	2051	
3040	0	2043	2044	2040	2052	
3041	0	2041	2048	2046	2049	
3042	0	2040	2046	2046	2051	
3043	0	2043	2048	2049	2055	
3044	0	2043	2050	2050	2047	
3045	0	2045	2051	2048	2054	
3046	0	2046	2052	2045	2058	
3047	0	2050	2043	2034	2060	
3048	0	2053	2041	2048	2060	
3049	0	2051	2045	2058	2056	
3050	0	2057	2048	2055	2056	
3051	0	2056	2046	2053	2056	
3052	0	2054	2051	2048	2058	
3053	0	2055	2049	2053	2056	
3054	0	2050	2054	2042	2056	
3055	0	2048	2057	2048	2056	
3056	0	2049	2054	2040	2051	
3057	0	2054	2048	2055	2051	
3058	0	2050	2046	2051	2049	
3059	0	2048	2047	2038	2052	
3060	0	2045	2048	2036	2050	
3061	0	2046	2047	2045	2048	
3062	0	2048	2052	2049	2045	
3063	0	2051	2051	2051	2043	
3064	0	2048	2049	2048	2030	
3065	0	2048	2046	2055	2047	
3066	0	2047	2053	2054	2051	
3067	0	2050	2048	2048	2044	
3068	0	2049	2044	2049	2046	
3069	0	2052	2044	2041	2058	
3070	0	2053	2050	2056	2049	
3071	0	2054	2052	2054	2051	
3072	0	2054	2049	2040	2059	
3073	0	2052	2052	2049	2052	
3074	0	2055	2046	2039	2044	
3075	0	2052	2044	2053	2045	
3076	0	2051	2055	2046	2054	
3077	0	2050	2049	2045	2044	
3078	0	2048	2050	2050	2041	
3079	0	2044	2046	2044	2049	
3080	0	2040	2046	2043	2053	
3081	0	2039	2045	2046	2053	
3082	0	2041	2045	2045	2056	
3083	0	2047	2051	2038	2053	
3084	0	2047	2052	2051	2050	
3085	0	2048	2053	2050	2044	
3086	0	2050	2049	2055	2045	
3087	0	2053	2051	2053	2047	
3088	0	2055	2046	2045	2053	
3089	0	2058	2047	2052	2051	
3090	0	2056	2052	2053	2057	
3091	0	2051	2051	2052	2056	
3092	0	2053	2047	2052	2053	
3093	0	2056	2052	2050	2050	
3094	0	2052	2053	2055	2052	
3095	0	2047	2052	2049	2044	
3096	0	2048	2053	2046	2045	
3097	0	2048	2054	2040	2042	
3098	0	2047	2051	2046	2040	
3099	0	2042	2040	2047	2039	
3100	0	2038	2038	2050	2041	
3101	0	2043	2047	2048	2040	
3102	0	2041	2047	2052	2042	
3103	0	2045	2046	2054	2040	
3104	0	2047	2046	2054	2038	
3105	0	2051	2051	2052	2039	
3106	0	2050	2054	2050	2041	
3107	0	2052	2052	2047	2039	
3108	0	2051	2053	2044	2043	
3109	0	2055	2045	2053	2046	
3110	0	2060	2049	2046	2045	
3111	0	2058	2051	2050	2053	
3112	0	2054	2048	2038	2050	
3113	0	2051	2053	2045	2049	
3114	0	2051	2054	2048	2046	
3115	0	2050	2055	2048	2046	
3116	0	2051	2054	2046	2041	
3117	0	2052	2057	2053	2046	
3118	0	2044	2054	2051	2049	
3119	0	2041	2054	2050	2047	
3120	0	2041	2052	2050	2053	
3121	0	2045	2045	2053	2048	
3122	0	2048	2043	2055	2051	
3123	0	2043	2043	2048	2049	
3124	0	2046	2043	2048	2050	
3125	0	2047	2039	2039	2057	
3126	0	2048	2041	2043	2052	
3127	0	2052	2045	2036	2052	
3128	0	2054	2046	2048	2051	
3129	0	2057	2052	2043	2051	
3130	0	2056	2051	2047	2046	
3131	0	2058	2048	2047	2049	
3132	0	2058	2054	2050	2048	
3133	0	2056	2052	2055	2046	
3134	0	2057	2054	2054	2042	
3135	0	2050	2050	2050	2039	
3136	0	2046	2047	2050	2042	
3137	0	2045	2046	2050	2043	
3138	0	2049	2047	2036	2036	
3139	0	2044	2049	2043	2029	
3140	0	2043	2045	2032	2034	
3141	0	2040	2044	2039	2035	
3142	0	2039	2044	2044	2043	
3143	0	2044	2046	2052	2045	
3144	0	2046	2048	2055	2040	
3145	0	2046	2047	2042	2039	
3146	0	2048	2046	2053	2043	
3147	0	2050	2043	2054	2048	
3148	0	2052	2050	2045	2047	
3149	0	2054	2050	2055	2039	
