# OpenSignals Text File Format
# {"00:07:80:3B:46:6F": {"sensor": ["EMG", "EMG", "EMG", "EMG"], "device name": "00:07:80:3B:46:6F", "column": ["nSeq", "DI", "Direito Multi", "Esquerdo Multi", "Direito ES", "Esquerdo ES"], "sync interval": 2, "time": "12:47:5.387", "comments": "", "device connection": "BTH00:07:80:3B:46:6F", "channels": [1, 2, 3, 4], "date": "2016-9-26", "mode": 0, "digital IO": [0, 1], "firmware version": 514, "device": "bioplux", "position": 0, "sampling rate": 1000, "label": ["Direito Multi", "Esquerdo Multi", "Direito ES", "Esquerdo ES"], "resolution": [12, 12, 12, 12], "special": [{}, {}, {}, {}]}}
# EndOfHeader
0	0	2046	2043	2062	2042	
1	0	2041	2049	2056	2048	
2	0	2049	2048	2037	2054	
3	0	2045	2052	2028	2040	
4	0	2049	2054	2038	2041	
5	0	2055	2054	2035	2032	
6	0	2050	2050	2045	2040	
7	0	2054	2050	2040	2072	
8	0	2052	2057	2054	2052	
9	0	2054	2058	2061	2038	
10	0	2065	2059	2078	2046	
11	0	2063	2041	2077	2054	
12	0	2057	2041	2060	2064	
13	0	2053	2053	2052	2060	
14	0	2032	2039	2030	2058	
15	0	2031	2044	2024	2046	
16	0	2037	2047	2025	2054	
17	0	2036	2044	2023	2052	
18	0	2039	2043	2030	2048	
19	0	2044	2038	2037	2055	
20	0	2044	2041	2033	2052	
21	0	2042	2053	2040	2046	
22	0	2046	2058	2035	2038	
23	0	2050	2056	2046	2043	
24	0	2044	2068	2048	2060	
25	0	2041	2046	2052	2067	
26	0	2034	2011	2055	2068	
27	0	2051	2033	2072	2043	
28	0	2083	2082	2079	2012	
29	0	2090	2109	2079	2018	
30	0	2080	2081	2072	2035	
31	0	2063	2045	2079	2059	
32	0	2044	2025	2068	2047	
33	0	2043	2030	2061	2041	
34	0	2038	2019	2058	2045	
35	0	2041	2025	2059	2038	
36	0	2050	2050	2048	2028	
37	0	2047	2059	2038	2046	
38	0	2051	2055	2044	2049	
39	0	2061	2055	2042	2052	
40	0	2052	2058	2040	2045	
41	0	2054	2069	2025	2084	
42	0	2040	2052	2025	2080	
43	0	2045	2049	2026	2053	
44	0	2046	2048	2038	2033	
45	0	2041	2048	2033	2028	
46	0	2033	2051	2033	2029	
47	0	2035	2046	2029	2023	
48	0	2042	2042	2036	2041	
49	0	2025	2025	2031	2042	
50	0	2043	2056	2033	2029	
51	0	2075	2100	2062	2019	
52	0	2068	2079	2071	2033	
53	0	2050	2030	2051	2053	
54	0	2030	1971	2060	2064	
55	0	2034	1987	2057	2014	
56	0	2050	2030	2057	2035	
57	0	2068	2074	2054	2053	
58	0	2066	2079	2053	2106	
59	0	2057	2093	2042	2085	
60	0	2044	2061	2069	2082	
61	0	2048	2031	2094	2047	
62	0	2045	2027	2090	2033	
63	0	2061	2061	2080	2003	
64	0	2062	2064	2071	2086	
65	0	2061	2057	2037	2039	
66	0	2064	2063	2004	2034	
67	0	2054	2070	2003	2025	
68	0	2050	2058	1996	2031	
69	0	2043	2054	1986	2024	
70	0	2033	2054	1994	2061	
71	0	2034	2066	2001	2034	
72	0	2046	2056	2033	2051	
73	0	2052	2048	2053	2036	
74	0	2055	2049	2048	2045	
75	0	2049	2052	2067	2042	
76	0	2045	2044	2066	2067	
77	0	2050	2042	2067	2055	
78	0	2053	2042	2087	2056	
79	0	2053	2036	2084	2050	
80	0	2045	2038	2069	2066	
81	0	2044	2046	2066	2027	
82	0	2044	2057	2052	2036	
83	0	2051	2063	2041	2037	
84	0	2044	2038	2050	2062	
85	0	2045	2030	2057	2044	
86	0	2050	2034	2065	2058	
87	0	2045	2044	2067	2047	
88	0	2039	2046	2049	2047	
89	0	2040	2040	2056	2039	
90	0	2041	2048	2043	2049	
91	0	2054	2049	2021	2047	
92	0	2048	2052	2004	2059	
93	0	2042	2051	2006	2060	
94	0	2054	2056	2029	2041	
95	0	2064	2063	2050	2033	
96	0	2062	2058	2065	2032	
97	0	2058	2053	2053	2041	
98	0	2050	2045	2064	2044	
99	0	2048	2046	2047	2046	
100	0	2057	2055	2065	2057	
101	0	2049	2046	2051	2045	
102	0	2049	2035	2049	2046	
103	0	2049	2035	2057	2032	
104	0	2040	2038	2036	2035	
105	0	2036	2038	2033	2021	
106	0	2040	2040	2045	2017	
107	0	2050	2052	2049	2022	
108	0	2033	2034	2050	2065	
109	0	2040	2049	2049	2070	
110	0	2076	2086	2055	2062	
111	0	2069	2071	2059	2089	
112	0	2064	2062	2055	2088	
113	0	2067	2062	2083	2054	
114	0	2070	2060	2096	2041	
115	0	2056	2047	2090	2078	
116	0	2047	2040	2073	2065	
117	0	2051	2059	2081	2068	
118	0	2048	2062	2047	2046	
119	0	2044	2058	2014	2030	
120	0	2028	2029	1989	2051	
121	0	2040	2015	1962	2041	
122	0	2032	2000	1959	2048	
123	0	2035	2038	1966	2051	
124	0	2040	2056	1980	2035	
125	0	2049	2069	2023	2012	
126	0	2064	2081	2061	2020	
127	0	2054	2077	2084	2033	
128	0	2048	2052	2090	2040	
129	0	2042	2037	2090	2043	
130	0	2048	2039	2083	2035	
131	0	2051	2045	2077	2036	
132	0	2050	2045	2060	2028	
133	0	2048	2049	2060	2056	
134	0	2048	2045	2054	2059	
135	0	2054	2064	2046	2070	
136	0	2063	2060	2068	2038	
137	0	2061	2050	2062	2062	
138	0	2051	2034	2050	2057	
139	0	2045	2031	2048	2069	
140	0	2044	2037	2048	2046	
141	0	2055	2047	2053	2013	
142	0	2058	2059	2066	2019	
143	0	2052	2067	2054	2018	
144	0	2044	2049	2048	2044	
145	0	2044	2060	2028	2049	
146	0	2042	2058	2038	2061	
147	0	2048	2069	2036	2041	
148	0	2054	2037	2053	2047	
149	0	2042	1997	2047	2047	
150	0	2042	2017	2027	2023	
151	0	2037	2029	2040	2105	
152	0	2035	2026	2046	2093	
153	0	2038	2028	2051	2120	
154	0	2055	2068	2044	2063	
155	0	2073	2093	2053	2024	
156	0	2076	2107	2074	2007	
157	0	2071	2076	2071	2019	
158	0	2064	2061	2073	2039	
159	0	2049	2047	2053	2047	
160	0	2061	2053	2057	2052	
161	0	2043	2036	2047	2033	
162	0	2034	2029	2030	2063	
163	0	2029	2029	2027	2052	
164	0	2027	2019	2019	2069	
165	0	2052	2066	2008	2044	
166	0	2059	2075	2027	2050	
167	0	2052	2045	2042	2023	
168	0	2049	2049	2045	2034	
169	0	2053	2054	2057	2032	
170	0	2053	2046	2068	2050	
171	0	2045	2039	2054	2054	
172	0	2054	2047	2065	2051	
173	0	2057	2048	2082	2039	
174	0	2067	2050	2086	2047	
175	0	2056	2046	2075	2034	
176	0	2046	2044	2051	2046	
177	0	2047	2047	2046	2040	
178	0	2053	2047	2044	2048	
179	0	2044	2043	2029	2037	
180	0	2043	2047	2011	2049	
181	0	2047	2052	2017	2033	
182	0	2048	2061	2013	2044	
183	0	2045	2066	2020	2044	
184	0	2029	2042	2011	2073	
185	0	2029	2032	2033	2080	
186	0	2028	2032	2040	2090	
187	0	2050	2052	2044	2057	
188	0	2048	2045	2064	2055	
189	0	2051	2034	2082	2048	
190	0	2056	2042	2106	2045	
191	0	2056	2038	2109	2034	
192	0	2053	2045	2092	2040	
193	0	2052	2070	2056	2033	
194	0	2041	2059	2033	2036	
195	0	2047	2045	2019	2027	
196	0	2063	2069	1999	2061	
197	0	2059	2066	1980	2067	
198	0	2058	2063	1966	2048	
199	0	2059	2061	2023	2044	
200	0	2052	2051	2058	2063	
201	0	2038	2038	2064	2047	
202	0	2035	2033	2076	2053	
203	0	2046	2050	2073	2030	
204	0	2053	2052	2066	2029	
205	0	2056	2052	2076	2020	
206	0	2047	2046	2063	2069	
207	0	2043	2048	2061	2061	
208	0	2045	2042	2057	2055	
209	0	2049	2040	2050	2048	
210	0	2043	2040	2054	2060	
211	0	2041	2043	2055	2026	
212	0	2040	2042	2048	2033	
213	0	2053	2063	2045	2025	
214	0	2056	2055	2049	2076	
215	0	2059	2050	2043	2062	
216	0	2062	2053	2055	2059	
217	0	2060	2048	2056	2044	
218	0	2046	2040	2048	2063	
219	0	2043	2040	2042	2051	
220	0	2041	2031	2036	2061	
221	0	2022	2004	2018	2052	
222	0	2024	2013	2031	2065	
223	0	2044	2052	2037	2037	
224	0	2057	2085	2038	2041	
225	0	2068	2101	2055	2014	
226	0	2074	2092	2048	2044	
227	0	2076	2079	2059	2023	
228	0	2075	2078	2074	2018	
229	0	2062	2064	2067	2034	
230	0	2052	2049	2058	2022	
231	0	2041	2044	2048	2029	
232	0	2037	2027	2049	2061	
233	0	2035	2029	2045	2080	
234	0	2047	2042	2051	2039	
235	0	2041	2031	2040	2045	
236	0	2039	2041	2041	2064	
237	0	2039	2047	2047	2058	
238	0	2046	2042	2061	2069	
239	0	2046	2043	2072	2060	
240	0	2056	2038	2081	2076	
241	0	2052	2032	2072	2072	
242	0	2039	2028	2045	2075	
243	0	2035	2031	2022	2048	
244	0	2036	2047	2004	2005	
245	0	2038	2065	1972	1975	
246	0	2052	2082	1987	2010	
247	0	2050	2073	1992	2106	
248	0	2046	2042	2028	2066	
249	0	2048	2041	2056	2076	
250	0	2055	2046	2061	2089	
251	0	2062	2052	2069	2053	
252	0	2069	2070	2086	2040	
253	0	2072	2061	2096	2022	
254	0	2068	2052	2077	2041	
255	0	2048	2055	2070	2026	
256	0	2046	2054	2068	2041	
257	0	2053	2050	2066	2035	
258	0	2056	2046	2072	2041	
259	0	2064	2067	2063	2036	
260	0	2060	2066	2062	2046	
261	0	2054	2054	2054	2059	
262	0	2046	2042	2030	2041	
263	0	2043	2049	2027	2040	
264	0	2035	2029	2008	2047	
265	0	2023	2007	2006	2064	
266	0	2033	2020	2031	2039	
267	0	2044	2037	2059	2024	
268	0	2050	2059	2083	2039	
269	0	2059	2065	2099	2064	
270	0	2073	2064	2104	2024	
271	0	2063	2051	2101	2011	
272	0	2051	2052	2068	2047	
273	0	2046	2044	2032	2061	
274	0	2039	2049	2013	2075	
275	0	2036	2067	1986	2057	
276	0	2043	2070	1962	2092	
277	0	2043	2065	1965	2104	
278	0	2041	2074	1968	2082	
279	0	2025	2033	1998	2051	
280	0	2021	1989	2015	2055	
281	0	2036	2012	2040	2034	
282	0	2054	2036	2061	2037	
283	0	2055	2051	2072	2031	
284	0	2051	2044	2085	2040	
285	0	2055	2044	2088	2040	
286	0	2051	2046	2083	2036	
287	0	2056	2040	2077	2050	
288	0	2060	2054	2086	2040	
289	0	2061	2063	2090	2044	
290	0	2067	2065	2091	2030	
291	0	2066	2068	2083	2024	
292	0	2053	2044	2068	2026	
293	0	2044	2041	2060	2039	
294	0	2048	2050	2052	2019	
295	0	2049	2048	2047	2014	
296	0	2046	2056	2027	2057	
297	0	2044	2041	2012	2074	
298	0	2049	2044	2019	2052	
299	0	2051	2053	2021	2019	
300	0	2048	2048	2002	2082	
301	0	2051	2058	2016	2074	
302	0	2052	2062	2035	2087	
303	0	2044	2040	2049	2072	
304	0	2040	2035	2057	2072	
305	0	2052	2066	2065	2041	
306	0	2056	2081	2067	2030	
307	0	2056	2030	2065	2042	
308	0	2072	2058	2075	2035	
309	0	2072	2060	2074	2025	
310	0	2053	2055	2053	2037	
311	0	2033	2043	2029	2050	
312	0	2035	2036	2016	2037	
313	0	2036	2038	2021	2043	
314	0	2034	2036	2030	2039	
315	0	2036	2034	2036	2059	
316	0	2044	2047	2041	2051	
317	0	2054	2047	2051	2062	
318	0	2058	2046	2065	2052	
319	0	2052	2041	2055	2055	
320	0	2055	2049	2050	2037	
321	0	2051	2058	2043	2036	
322	0	2053	2059	2057	2043	
323	0	2051	2053	2054	2052	
324	0	2054	2046	2060	2053	
325	0	2053	2046	2060	2052	
326	0	2048	2045	2060	2053	
327	0	2050	2048	2064	2056	
328	0	2045	2049	2063	2052	
329	0	2043	2048	2058	2045	
330	0	2056	2055	2055	2042	
331	0	2061	2068	2057	2034	
332	0	2054	2053	2043	2046	
333	0	2050	2048	2059	2055	
334	0	2048	2050	2046	2054	
335	0	2045	2040	2048	2051	
336	0	2053	2044	2041	2058	
337	0	2044	2038	2036	2056	
338	0	2034	2038	2017	2046	
339	0	2043	2053	2012	2035	
340	0	2043	2050	2020	2028	
341	0	2050	2063	2045	2024	
342	0	2053	2052	2049	2031	
343	0	2048	2038	2057	2036	
344	0	2046	2032	2040	2039	
345	0	2046	2036	2054	2051	
346	0	2061	2052	2052	2058	
347	0	2056	2050	2049	2082	
348	0	2040	2044	2035	2089	
349	0	2035	2038	2030	2066	
350	0	2045	2053	2034	2041	
351	0	2044	2056	2046	2028	
352	0	2048	2051	2036	2048	
353	0	2058	2051	2044	2035	
354	0	2057	2042	2065	2042	
355	0	2047	2035	2059	2032	
356	0	2052	2052	2056	2041	
357	0	2060	2073	2059	2042	
358	0	2067	2084	2073	2069	
359	0	2072	2083	2076	2048	
360	0	2065	2060	2067	2050	
361	0	2060	2052	2073	2032	
362	0	2062	2054	2072	2069	
363	0	2058	2046	2054	2031	
364	0	2047	2038	2035	2031	
365	0	2041	2043	2029	2031	
366	0	2048	2044	2022	2089	
367	0	2053	2051	2043	2038	
368	0	2046	2045	2051	2029	
369	0	2031	2032	2044	2036	
370	0	2026	2023	2039	2085	
371	0	2028	2021	2028	2067	
372	0	2030	2042	2032	2058	
373	0	2032	2035	2028	2046	
374	0	2036	2046	2025	2048	
375	0	2051	2071	2047	2031	
376	0	2047	2035	2048	2060	
377	0	2051	2039	2057	2041	
378	0	2080	2096	2081	2021	
379	0	2077	2106	2085	2023	
380	0	2065	2065	2070	2072	
381	0	2051	2036	2064	2062	
382	0	2045	2021	2060	2041	
383	0	2049	2034	2035	2058	
384	0	2055	2054	1999	2048	
385	0	2049	2044	2008	2060	
386	0	2050	2045	2030	2051	
387	0	2052	2053	2026	2049	
388	0	2054	2058	2026	2030	
389	0	2048	2057	2040	2028	
390	0	2052	2061	2046	2050	
391	0	2046	2053	2050	2042	
392	0	2046	2061	2052	2051	
393	0	2052	2062	2059	2048	
394	0	2053	2066	2064	2038	
395	0	2056	2054	2076	2057	
396	0	2058	2023	2080	2051	
397	0	2054	2042	2059	2045	
398	0	2043	2027	2051	2037	
399	0	2036	2009	2059	2044	
400	0	2032	2011	2043	2069	
401	0	2035	2027	2041	2067	
402	0	2046	2056	2049	2022	
403	0	2055	2072	2029	2025	
404	0	2041	2038	2025	2081	
405	0	2032	2018	2042	2056	
406	0	2033	2035	2041	2048	
407	0	2038	2047	2035	2056	
408	0	2037	2035	2036	2024	
409	0	2037	2040	2023	2024	
410	0	2042	2037	2036	2059	
411	0	2075	2093	2079	2032	
412	0	2090	2109	2099	2028	
413	0	2081	2079	2105	2035	
414	0	2072	2063	2093	2049	
415	0	2068	2074	2066	2075	
416	0	2053	2057	2043	2063	
417	0	2046	2044	2027	2057	
418	0	2040	2039	1997	2039	
419	0	2032	2025	1976	2057	
420	0	2048	2058	2013	2067	
421	0	2060	2084	2030	2041	
422	0	2052	2061	2015	2039	
423	0	2041	2043	2032	2046	
424	0	2031	2033	2057	2076	
425	0	2029	2018	2062	2066	
426	0	2017	2002	2059	2044	
427	0	2032	2040	2087	2050	
428	0	2057	2084	2090	2018	
429	0	2070	2071	2101	2039	
430	0	2062	2041	2083	2037	
431	0	2058	2051	2051	2045	
432	0	2051	2043	2026	2063	
433	0	2057	2044	2010	2056	
434	0	2057	2054	2019	2069	
435	0	2056	2055	2028	2051	
436	0	2056	2049	2024	2070	
437	0	2051	2049	2023	2042	
438	0	2052	2056	2020	2042	
439	0	2052	2050	2039	2039	
440	0	2048	2041	2060	2041	
441	0	2042	2049	2054	2038	
442	0	2044	2046	2062	2028	
443	0	2053	2046	2072	2030	
444	0	2050	2047	2060	2032	
445	0	2041	2041	2052	2040	
446	0	2034	2037	2051	2034	
447	0	2036	2046	2052	2050	
448	0	2046	2049	2055	2070	
449	0	2043	2041	2047	2069	
450	0	2044	2043	2050	2055	
451	0	2050	2049	2055	2048	
452	0	2054	2043	2056	2050	
453	0	2066	2058	2056	2036	
454	0	2078	2062	2065	2036	
455	0	2081	2078	2068	2021	
456	0	2073	2067	2068	2045	
457	0	2056	2062	2057	2053	
458	0	2039	2045	2036	2043	
459	0	2030	2028	2026	2066	
460	0	2027	2023	2022	2059	
461	0	2016	2009	2021	2069	
462	0	2034	2040	2024	2042	
463	0	2042	2060	2029	2054	
464	0	2047	2050	2040	2055	
465	0	2047	2063	2052	2067	
466	0	2044	2045	2054	2059	
467	0	2047	2044	2053	2026	
468	0	2047	2050	2054	2021	
469	0	2048	2043	2051	2040	
470	0	2050	2050	2048	2048	
471	0	2052	2045	2042	2054	
472	0	2056	2059	2041	2037	
473	0	2068	2078	2063	2034	
474	0	2077	2071	2088	2025	
475	0	2089	2068	2113	2028	
476	0	2078	2064	2115	2034	
477	0	2058	2039	2079	2050	
478	0	2047	2036	2052	2058	
479	0	2042	2054	2030	2064	
480	0	2032	2041	2001	2056	
481	0	2025	2025	1979	2058	
482	0	2023	2023	1974	2063	
483	0	2018	2021	1977	2048	
484	0	2027	2044	1985	2052	
485	0	2034	2056	2003	2039	
486	0	2049	2068	2045	2026	
487	0	2050	2070	2083	2015	
488	0	2064	2075	2094	2023	
489	0	2059	2072	2081	2047	
490	0	2053	2043	2076	2056	
491	0	2051	2037	2069	2080	
492	0	2055	2042	2059	2056	
493	0	2048	2036	2046	2050	
494	0	2047	2038	2053	2053	
495	0	2053	2039	2063	2053	
496	0	2060	2057	2068	2081	
497	0	2060	2055	2055	2078	
498	0	2060	2060	2046	2071	
499	0	2063	2060	2050	2062	
500	0	2045	2045	2045	2033	
501	0	2043	2048	2053	2044	
502	0	2047	2046	2058	2031	
503	0	2049	2051	2059	2038	
504	0	2055	2057	2072	2023	
505	0	2049	2034	2065	2052	
506	0	2055	2038	2060	2040	
507	0	2060	2046	2062	2035	
508	0	2054	2043	2064	2042	
509	0	2047	2045	2050	2074	
510	0	2041	2036	2037	2060	
511	0	2033	2030	2014	2083	
512	0	2031	2038	1999	2078	
513	0	2046	2056	2015	2060	
514	0	2044	2057	2021	2051	
515	0	2038	2046	2028	2028	
516	0	2047	2052	2047	2043	
517	0	2064	2091	2058	2023	
518	0	2069	2102	2056	2024	
519	0	2051	2066	2049	2030	
520	0	2046	2050	2050	2039	
521	0	2045	2028	2061	2018	
522	0	2049	2000	2054	2025	
523	0	2052	2031	2043	2022	
524	0	2044	2042	2036	2029	
525	0	2044	2060	2039	2038	
526	0	2043	2058	2043	2023	
527	0	2036	2065	2032	2019	
528	0	2034	2058	2038	2021	
529	0	2026	2032	2033	2092	
530	0	2030	2011	2030	2104	
531	0	2052	2006	2034	2071	
532	0	2060	2030	2058	2089	
533	0	2072	2076	2080	2047	
534	0	2079	2085	2073	2037	
535	0	2065	2075	2050	2041	
536	0	2051	2050	2044	2042	
537	0	2053	2050	2030	2039	
538	0	2049	2053	2009	2057	
539	0	2033	2036	2007	2087	
540	0	2029	2045	2021	2083	
541	0	2052	2077	2045	2035	
542	0	2056	2065	2056	2033	
543	0	2050	2040	2067	2030	
544	0	2050	2037	2070	2036	
545	0	2052	2051	2071	2060	
546	0	2050	2047	2063	2042	
547	0	2046	2054	2053	2048	
548	0	2049	2045	2061	2061	
549	0	2046	2035	2057	2038	
550	0	2046	2030	2041	2039	
551	0	2056	2049	2038	2028	
552	0	2059	2077	2043	2035	
553	0	2071	2088	2061	2010	
554	0	2069	2068	2068	2046	
555	0	2062	2054	2063	2068	
556	0	2049	2017	2046	2068	
557	0	2052	2034	2063	2069	
558	0	2053	2044	2078	2054	
559	0	2046	2035	2066	2063	
560	0	2046	2043	2053	2033	
561	0	2043	2050	2051	2025	
562	0	2042	2061	2032	2034	
563	0	2035	2045	2003	2044	
564	0	2033	2045	1996	2074	
565	0	2037	2042	1986	2068	
566	0	2038	2044	1998	2053	
567	0	2041	2052	2021	2053	
568	0	2049	2058	2047	2032	
569	0	2050	2057	2063	2025	
570	0	2040	2050	2057	2041	
571	0	2038	2041	2043	2052	
572	0	2039	2036	2051	2059	
573	0	2048	2039	2056	2060	
574	0	2052	2038	2057	2052	
575	0	2058	2035	2056	2044	
576	0	2058	2045	2076	2036	
577	0	2065	2054	2071	2030	
578	0	2062	2061	2057	2025	
579	0	2061	2059	2054	2037	
580	0	2059	2067	2058	2074	
581	0	2053	2061	2056	2078	
582	0	2046	2050	2050	2063	
583	0	2038	2045	2046	2077	
584	0	2041	2048	2044	2069	
585	0	2050	2056	2065	2049	
586	0	2057	2059	2074	2038	
587	0	2060	2055	2071	2026	
588	0	2058	2056	2058	2037	
589	0	2055	2051	2060	2042	
590	0	2046	2039	2044	2046	
591	0	2045	2046	2028	2035	
592	0	2043	2045	2006	2030	
593	0	2043	2051	2017	2031	
594	0	2050	2051	2024	2034	
595	0	2042	2040	2020	2036	
596	0	2047	2041	2023	2048	
597	0	2045	2032	2024	2066	
598	0	2055	2039	2033	2101	
599	0	2065	2053	2064	2058	
600	0	2066	2068	2065	2030	
601	0	2057	2063	2061	2057	
602	0	2055	2057	2063	2056	
603	0	2047	2045	2046	2054	
604	0	2042	2040	2043	2049	
605	0	2037	2035	2049	2043	
606	0	2029	2040	2045	2063	
607	0	2035	2038	2044	2049	
608	0	2045	2047	2047	2042	
609	0	2056	2055	2053	2025	
610	0	2058	2060	2059	2039	
611	0	2057	2074	2059	2034	
612	0	2045	2041	2047	2043	
613	0	2050	2033	2048	2048	
614	0	2056	2045	2056	2057	
615	0	2048	2039	2052	2061	
616	0	2049	2044	2058	2050	
617	0	2054	2052	2055	2065	
618	0	2054	2054	2048	2042	
619	0	2053	2055	2044	2047	
620	0	2042	2042	2050	2051	
621	0	2044	2040	2042	2040	
622	0	2048	2047	2037	2037	
623	0	2044	2041	2043	2039	
624	0	2046	2045	2047	2032	
625	0	2056	2065	2060	2034	
626	0	2056	2065	2058	2065	
627	0	2050	2060	2052	2039	
628	0	2045	2043	2041	2051	
629	0	2042	2047	2051	2049	
630	0	2042	2036	2055	2050	
631	0	2042	2042	2042	2054	
632	0	2045	2050	2045	2053	
633	0	2052	2050	2055	2073	
634	0	2057	2063	2041	2051	
635	0	2055	2052	2025	2057	
636	0	2050	2051	2025	2043	
637	0	2050	2047	2037	2048	
638	0	2044	2027	2034	2076	
639	0	2044	2030	2049	2055	
640	0	2048	2038	2039	2054	
641	0	2044	2047	2034	2045	
642	0	2041	2052	2040	2032	
643	0	2044	2059	2052	2042	
644	0	2048	2070	2054	2024	
645	0	2048	2056	2045	2012	
646	0	2048	2060	2058	2028	
647	0	2042	2051	2056	2043	
648	0	2036	2030	2039	2064	
649	0	2032	2009	2049	2048	
650	0	2029	2000	2046	2040	
651	0	2053	2031	2057	2054	
652	0	2062	2063	2049	2050	
653	0	2072	2080	2054	2034	
654	0	2066	2082	2048	2031	
655	0	2067	2078	2053	2040	
656	0	2057	2074	2042	2074	
657	0	2067	2080	2058	2061	
658	0	2063	2061	2058	2030	
659	0	2057	2030	2082	2049	
660	0	2063	2054	2094	2015	
661	0	2065	2062	2081	1992	
662	0	2046	2059	2058	2016	
663	0	2030	2031	2015	2106	
664	0	2036	2028	2006	2097	
665	0	2041	2030	2012	2053	
666	0	2045	2036	2023	2082	
667	0	2056	2034	2029	2068	
668	0	2054	2057	2037	2049	
669	0	2042	2054	2033	2029	
670	0	2038	2065	2040	2004	
671	0	2054	2087	2055	2006	
672	0	2051	2052	2043	2056	
673	0	2042	2019	2050	2069	
674	0	2041	2024	2044	2070	
675	0	2038	2030	2051	2077	
676	0	2043	2037	2048	2081	
677	0	2044	2050	2045	2062	
678	0	2040	2034	2045	2057	
679	0	2037	2032	2034	2045	
680	0	2038	2041	2051	2048	
681	0	2056	2060	2053	2054	
682	0	2067	2062	2064	2053	
683	0	2057	2035	2069	2048	
684	0	2058	2044	2064	2040	
685	0	2055	2049	2064	2020	
686	0	2048	2030	2053	2006	
687	0	2046	2046	2055	1996	
688	0	2043	2072	2042	2001	
689	0	2051	2085	2051	2022	
690	0	2050	2054	2037	2071	
691	0	2050	2028	2043	2098	
692	0	2040	2022	2023	2094	
693	0	2066	2069	2028	2066	
694	0	2075	2093	2024	2047	
695	0	2061	2076	2035	2054	
696	0	2055	2070	2031	2046	
697	0	2057	2054	2040	2053	
698	0	2049	2027	2036	2083	
699	0	2056	2037	2059	2036	
700	0	2062	2056	2064	2001	
701	0	2050	2057	2068	1998	
702	0	2043	2052	2063	2010	
703	0	2040	2040	2053	2025	
704	0	2041	2039	2062	2033	
705	0	2050	2038	2067	2048	
706	0	2053	2040	2078	2065	
707	0	2060	2062	2085	2066	
708	0	2066	2072	2104	2068	
709	0	2050	2042	2073	2076	
710	0	2031	2018	2038	2074	
711	0	2029	2013	1999	2080	
712	0	2040	2051	1961	2048	
713	0	2057	2085	1955	2040	
714	0	2060	2086	2002	2030	
715	0	2052	2069	2016	2033	
716	0	2041	2049	2009	2060	
717	0	2026	2046	2011	2042	
718	0	2031	2043	2036	2048	
719	0	2033	2027	2061	2079	
720	0	2042	2020	2071	2046	
721	0	2046	2040	2073	2034	
722	0	2050	2047	2072	2038	
723	0	2059	2053	2084	2052	
724	0	2059	2053	2077	2056	
725	0	2062	2051	2075	2054	
726	0	2057	2048	2064	2059	
727	0	2048	2045	2049	2045	
728	0	2038	2040	2049	2040	
729	0	2036	2028	2042	2052	
730	0	2034	2017	2039	2051	
731	0	2035	2025	2045	2038	
732	0	2046	2039	2045	2037	
733	0	2048	2047	2056	2064	
734	0	2056	2058	2059	2076	
735	0	2054	2060	2053	2047	
736	0	2062	2070	2041	2033	
737	0	2069	2070	2049	2038	
738	0	2054	2057	2040	2039	
739	0	2041	2050	2021	2028	
740	0	2052	2069	2023	2008	
741	0	2047	2042	2034	2072	
742	0	2047	2038	2056	2115	
743	0	2047	2035	2052	2078	
744	0	2037	2021	2053	2049	
745	0	2051	2046	2049	2026	
746	0	2085	2108	2064	2004	
747	0	2079	2085	2061	2019	
748	0	2063	2070	2067	2029	
749	0	2055	2054	2062	2027	
750	0	2051	2056	2076	2029	
751	0	2043	2041	2070	2039	
752	0	2039	2022	2083	2046	
753	0	2040	2018	2063	2049	
754	0	2035	2023	2046	2047	
755	0	2034	2031	2012	2057	
756	0	2037	2031	2014	2070	
757	0	2046	2032	1997	2067	
758	0	2046	2038	1975	2063	
759	0	2043	2052	1977	2040	
760	0	2045	2065	1988	2024	
761	0	2047	2066	2007	2042	
762	0	2052	2059	2036	2049	
763	0	2052	2048	2063	2044	
764	0	2058	2063	2080	2036	
765	0	2061	2074	2085	2030	
766	0	2052	2045	2075	2050	
767	0	2054	2044	2072	2048	
768	0	2046	2048	2056	2041	
769	0	2044	2047	2058	2039	
770	0	2048	2053	2044	2046	
771	0	2040	2052	2043	2061	
772	0	2044	2043	2043	2059	
773	0	2053	2037	2060	2054	
774	0	2057	2027	2060	2041	
775	0	2039	2014	2053	2069	
776	0	2024	1998	2043	2058	
777	0	2052	2036	2060	2029	
778	0	2073	2076	2061	2037	
779	0	2079	2099	2055	2026	
780	0	2077	2104	2053	2000	
781	0	2061	2070	2062	2039	
782	0	2045	2043	2045	2047	
783	0	2033	2044	2028	2059	
784	0	2030	2044	2030	2096	
785	0	2036	2041	2038	2073	
786	0	2045	2028	2051	2063	
787	0	2037	2018	2045	2059	
788	0	2055	2057	2054	2036	
789	0	2057	2076	2056	2026	
790	0	2045	2054	2051	2077	
791	0	2048	2052	2042	2029	
792	0	2037	2041	2040	2026	
793	0	2037	2043	2027	2038	
794	0	2053	2075	2035	2061	
795	0	2062	2068	2037	2088	
796	0	2078	2070	2059	2067	
797	0	2079	2086	2068	2039	
798	0	2062	2061	2057	2036	
799	0	2046	2039	2053	2044	
800	0	2041	2018	2033	2049	
801	0	2036	2025	2012	2046	
802	0	2038	2040	2012	2052	
803	0	2042	2046	2041	2029	
804	0	2042	2041	2042	2035	
805	0	2040	2033	2053	2032	
806	0	2038	2030	2060	2034	
807	0	2042	2032	2061	2043	
808	0	2051	2046	2089	2044	
809	0	2050	2048	2079	2044	
810	0	2040	2030	2072	2030	
811	0	2044	2021	2067	2061	
812	0	2056	2034	2058	2066	
813	0	2066	2064	2051	2068	
814	0	2067	2090	2047	2065	
815	0	2048	2061	2037	2056	
816	0	2040	2042	2032	2065	
817	0	2063	2071	2053	2047	
818	0	2075	2093	2066	2022	
819	0	2051	2069	2044	2023	
820	0	2039	2061	2050	2028	
821	0	2036	2058	2046	2027	
822	0	2019	2003	2039	2079	
823	0	2028	2004	2023	2068	
824	0	2042	2037	2027	2043	
825	0	2048	2031	2013	2049	
826	0	2047	2030	2016	2075	
827	0	2046	2023	2015	2078	
828	0	2045	2039	2030	2067	
829	0	2046	2050	2022	2050	
830	0	2054	2068	2054	2044	
831	0	2049	2067	2060	2042	
832	0	2053	2058	2072	2034	
833	0	2069	2065	2083	2018	
834	0	2071	2050	2103	2011	
835	0	2082	2066	2106	2012	
836	0	2092	2097	2107	2016	
837	0	2084	2092	2083	2029	
838	0	2062	2058	2046	2038	
839	0	2031	2036	2009	2062	
840	0	2028	2042	2002	2088	
841	0	2026	2048	1996	2093	
842	0	2028	2047	1990	2081	
843	0	2038	2040	2002	2074	
844	0	2035	2019	2025	2068	
845	0	2041	2030	2042	2055	
846	0	2038	2042	2039	2032	
847	0	2049	2041	2055	2019	
848	0	2038	2029	2055	2041	
849	0	2036	2034	2056	2058	
850	0	2044	2052	2049	2048	
851	0	2052	2036	2063	2052	
852	0	2058	2029	2058	2054	
853	0	2067	2043	2072	2041	
854	0	2060	2049	2050	2037	
855	0	2060	2065	2056	2028	
856	0	2054	2067	2046	2031	
857	0	2046	2049	2050	2031	
858	0	2038	2033	2036	2031	
859	0	2045	2046	2047	2039	
860	0	2059	2065	2042	2055	
861	0	2068	2070	2062	2056	
862	0	2063	2067	2070	2050	
863	0	2053	2057	2070	2041	
864	0	2049	2051	2043	2051	
865	0	2046	2040	2042	2042	
866	0	2050	2044	2037	2057	
867	0	2046	2048	2036	2055	
868	0	2048	2050	2035	2016	
869	0	2043	2035	2027	2025	
870	0	2038	2039	2022	2043	
871	0	2042	2060	2023	2049	
872	0	2048	2072	2035	2044	
873	0	2046	2065	2036	2045	
874	0	2038	2045	2042	2077	
875	0	2034	2026	2031	2082	
876	0	2052	2034	2062	2079	
877	0	2059	2041	2077	2070	
878	0	2061	2028	2103	2059	
879	0	2075	2063	2106	2047	
880	0	2088	2086	2108	2034	
881	0	2064	2073	2060	2029	
882	0	2037	2046	2016	2034	
883	0	2026	2025	1992	2063	
884	0	2016	2010	1971	2074	
885	0	2018	2028	1935	2042	
886	0	2023	2043	1948	2027	
887	0	2033	2055	2000	2004	
888	0	2053	2087	2041	1997	
889	0	2056	2078	2069	2019	
890	0	2055	2059	2067	2068	
891	0	2047	2020	2075	2053	
892	0	2047	2017	2073	2038	
893	0	2044	1999	2086	2068	
894	0	2050	2012	2087	2064	
895	0	2052	2027	2073	2078	
896	0	2060	2060	2060	2071	
897	0	2083	2113	2063	2033	
898	0	2081	2112	2067	2022	
899	0	2067	2085	2055	2039	
900	0	2049	2075	2050	2050	
901	0	2047	2072	2038	2058	
902	0	2048	2062	2044	2045	
903	0	2046	2049	2042	2042	
904	0	2049	2042	2054	2032	
905	0	2050	2027	2054	2031	
906	0	2046	2021	2057	2040	
907	0	2048	2036	2047	2039	
908	0	2052	2043	2054	2045	
909	0	2052	2051	2036	2042	
910	0	2055	2056	2053	2051	
911	0	2057	2053	2056	2041	
912	0	2055	2051	2052	2039	
913	0	2052	2041	2051	2047	
914	0	2049	2036	2039	2045	
915	0	2052	2042	2047	2051	
916	0	2050	2047	2039	2050	
917	0	2042	2034	2041	2055	
918	0	2031	2025	2016	2064	
919	0	2023	2022	2017	2067	
920	0	2024	2036	2013	2050	
921	0	2026	2067	2023	2032	
922	0	2038	2064	2030	2040	
923	0	2042	2047	2033	2053	
924	0	2035	2045	2038	2065	
925	0	2035	2042	2029	2076	
926	0	2035	2030	2035	2090	
927	0	2039	2023	2041	2080	
928	0	2042	2025	2057	2040	
929	0	2058	2050	2072	2031	
930	0	2093	2099	2095	2001	
931	0	2087	2085	2075	2019	
932	0	2072	2077	2073	2020	
933	0	2073	2077	2067	2042	
934	0	2074	2073	2081	2061	
935	0	2069	2052	2093	2060	
936	0	2070	2053	2098	2059	
937	0	2062	2053	2061	2057	
938	0	2050	2077	2046	2036	
939	0	2047	2089	2023	2027	
940	0	2036	2026	2006	2051	
941	0	2034	1991	1995	2046	
942	0	2037	2020	1991	2020	
943	0	2038	2042	2005	2014	
944	0	2023	2036	1997	2024	
945	0	2030	2053	2023	2054	
946	0	2037	2051	2042	2086	
947	0	2045	2043	2074	2081	
948	0	2047	2030	2084	2088	
949	0	2042	2029	2090	2086	
950	0	2044	2044	2069	2059	
951	0	2057	2072	2068	2047	
952	0	2066	2081	2059	2047	
953	0	2060	2069	2065	2060	
954	0	2057	2055	2058	2058	
955	0	2052	2052	2044	2043	
956	0	2055	2058	2043	2031	
957	0	2052	2056	2030	2030	
958	0	2041	2047	2037	2035	
959	0	2045	2048	2027	2044	
960	0	2052	2042	2049	2042	
961	0	2049	2030	2053	2049	
962	0	2046	2017	2053	2054	
963	0	2044	2028	2055	2032	
964	0	2049	2048	2056	2015	
965	0	2049	2050	2050	2021	
966	0	2042	2049	2030	2019	
967	0	2035	2045	2030	2036	
968	0	2031	2047	2024	2050	
969	0	2044	2048	2039	2059	
970	0	2058	2052	2046	2065	
971	0	2053	2048	2052	2081	
972	0	2049	2044	2050	2124	
973	0	2046	2024	2040	2093	
974	0	2048	2039	2059	2062	
975	0	2062	2072	2059	2043	
976	0	2063	2076	2063	2024	
977	0	2071	2078	2073	2030	
978	0	2065	2063	2084	2033	
979	0	2057	2063	2062	2035	
980	0	2050	2060	2036	2025	
981	0	2046	2066	2007	2037	
982	0	2034	2059	1992	2078	
983	0	2030	2029	2004	2076	
984	0	2036	2037	2024	2045	
985	0	2046	2058	2038	2017	
986	0	2044	2049	2057	2014	
987	0	2039	2020	2057	2037	
988	0	2044	2040	2052	2054	
989	0	2054	2058	2062	2048	
990	0	2055	2035	2067	2053	
991	0	2052	2035	2064	2052	
992	0	2052	2044	2064	2042	
993	0	2066	2074	2068	2045	
994	0	2068	2080	2075	2053	
995	0	2062	2061	2067	2067	
996	0	2065	2054	2073	2048	
997	0	2061	2048	2061	2046	
998	0	2051	2042	2056	2053	
999	0	2049	2038	2049	2042	
1000	0	2040	2036	2046	2036	
1001	0	2033	2033	2040	2038	
1002	0	2044	2034	2039	2057	
1003	0	2032	2028	2024	2048	
1004	0	2039	2045	2042	2030	
1005	0	2040	2048	2036	2045	
1006	0	2041	2044	2047	2056	
1007	0	2042	2043	2045	2038	
1008	0	2036	2040	2046	2037	
1009	0	2038	2044	2036	2045	
1010	0	2041	2042	2048	2061	
1011	0	2048	2048	2043	2043	
1012	0	2062	2064	2038	2048	
1013	0	2067	2076	2028	2046	
1014	0	2074	2080	2040	2047	
1015	0	2060	2047	2053	2103	
1016	0	2044	2033	2034	2104	
1017	0	2051	2063	2046	2085	
1018	0	2051	2079	2053	2072	
1019	0	2051	2076	2063	2050	
1020	0	2059	2067	2085	2027	
1021	0	2075	2049	2093	2017	
1022	0	2086	2059	2093	2004	
1023	0	2064	2047	2066	2011	
1024	0	2035	2016	2052	2044	
1025	0	2016	2015	2026	2064	
1026	0	2021	2053	2010	2062	
1027	0	2030	2041	1999	2057	
1028	0	2022	2014	1990	2051	
1029	0	2050	2063	2002	2047	
1030	0	2049	2066	2006	2051	
1031	0	2040	2047	2024	2052	
1032	0	2050	2043	2038	2033	
1033	0	2056	2034	2059	2015	
1034	0	2063	2039	2079	2012	
1035	0	2075	2052	2120	2020	
1036	0	2078	2051	2134	2033	
1037	0	2062	2042	2123	2072	
1038	0	2062	2070	2088	2033	
1039	0	2060	2070	2065	2016	
1040	0	2045	2040	2019	2039	
1041	0	2040	2040	1995	2061	
1042	0	2042	2050	1949	2070	
1043	0	2038	2049	1955	2079	
1044	0	2038	2049	1997	2064	
1045	0	2040	2020	2029	2077	
1046	0	2031	1989	2048	2101	
1047	0	2045	2041	2052	2082	
1048	0	2049	2073	2057	2054	
1049	0	2047	2095	2061	2044	
1050	0	2051	2085	2069	2038	
1051	0	2056	2075	2068	2023	
1052	0	2055	2051	2068	2036	
1053	0	2058	2049	2064	2029	
1054	0	2062	2046	2069	2037	
1055	0	2062	2047	2074	2034	
1056	0	2061	2049	2070	2028	
1057	0	2048	2039	2062	2048	
1058	0	2036	2025	2047	2075	
1059	0	2041	2038	2045	2059	
1060	0	2050	2046	2059	2055	
1061	0	2041	2031	2069	2052	
1062	0	2038	2011	2062	2062	
1063	0	2038	2005	2058	2068	
1064	0	2027	2013	2034	2056	
1065	0	2039	2069	2037	2041	
1066	0	2054	2083	2041	2048	
1067	0	2051	2056	2045	2035	
1068	0	2063	2088	2039	2027	
1069	0	2065	2094	2030	2026	
1070	0	2051	2080	2014	2051	
1071	0	2049	2081	2003	2036	
1072	0	2048	2061	2020	2041	
1073	0	2050	2046	2039	2040	
1074	0	2053	2038	2062	2035	
1075	0	2056	2043	2063	2042	
1076	0	2045	2032	2071	2054	
1077	0	2039	2026	2055	2063	
1078	0	2048	2051	2061	2058	
1079	0	2052	2050	2053	2057	
1080	0	2062	2052	2065	2038	
1081	0	2071	2057	2054	2036	
1082	0	2056	2044	2056	2030	
1083	0	2047	2039	2052	2035	
1084	0	2046	2035	2053	2040	
1085	0	2043	2042	2058	2047	
1086	0	2042	2043	2056	2060	
1087	0	2038	2038	2046	2062	
1088	0	2039	2042	2045	2044	
1089	0	2044	2050	2044	2031	
1090	0	2043	2046	2044	2029	
1091	0	2040	2038	2056	2040	
1092	0	2042	2038	2048	2045	
1093	0	2054	2047	2055	2033	
1094	0	2068	2084	2050	2039	
1095	0	2061	2089	2029	2028	
1096	0	2058	2074	2042	2055	
1097	0	2057	2055	2038	2066	
1098	0	2043	2020	2043	2074	
1099	0	2037	2009	2040	2070	
1100	0	2043	2022	2047	2061	
1101	0	2042	2043	2040	2062	
1102	0	2048	2053	2059	2061	
1103	0	2054	2071	2065	2048	
1104	0	2050	2062	2078	2033	
1105	0	2047	2048	2074	2033	
1106	0	2050	2044	2070	2059	
1107	0	2061	2049	2064	2071	
1108	0	2065	2052	2059	2057	
1109	0	2061	2057	2057	2050	
1110	0	2054	2049	2030	2037	
1111	0	2049	2058	2019	2032	
1112	0	2047	2058	2010	2046	
1113	0	2043	2058	2018	2047	
1114	0	2048	2048	2011	2060	
1115	0	2049	2045	2017	2067	
1116	0	2051	2058	2031	2059	
1117	0	2052	2058	2036	2060	
1118	0	2035	2062	2039	2038	
1119	0	2030	2074	2051	2008	
1120	0	2032	2056	2052	2022	
1121	0	2035	2035	2048	2069	
1122	0	2039	2031	2063	2037	
1123	0	2050	2033	2069	2007	
1124	0	2049	2018	2076	2026	
1125	0	2058	2023	2073	2059	
1126	0	2051	2024	2085	2086	
1127	0	2055	2059	2081	2093	
1128	0	2064	2067	2080	2017	
1129	0	2050	2040	2060	2030	
1130	0	2046	2047	2029	2068	
1131	0	2054	2061	2014	2088	
1132	0	2042	2057	1999	2097	
1133	0	2042	2061	2005	2077	
1134	0	2052	2069	2012	2050	
1135	0	2055	2058	2030	2058	
1136	0	2046	2057	2041	2051	
1137	0	2046	2050	2035	2030	
1138	0	2052	2046	2045	2036	
1139	0	2057	2044	2058	2041	
1140	0	2049	2041	2066	2039	
1141	0	2058	2061	2065	2029	
1142	0	2055	2050	2065	2029	
1143	0	2051	2041	2060	2040	
1144	0	2041	2044	2052	2050	
1145	0	2044	2044	2057	2049	
1146	0	2046	2038	2044	2027	
1147	0	2053	2043	2057	2031	
1148	0	2048	2045	2062	2023	
1149	0	2046	2061	2061	2045	
1150	0	2051	2076	2045	2054	
1151	0	2041	2017	2047	2074	
1152	0	2033	1980	2047	2076	
1153	0	2048	2026	2056	2039	
1154	0	2058	2062	2060	2051	
1155	0	2067	2062	2064	2052	
1156	0	2062	2060	2069	2049	
1157	0	2059	2064	2054	2022	
1158	0	2045	2043	2044	2066	
1159	0	2038	2024	2018	2050	
1160	0	2038	2017	2024	2061	
1161	0	2041	2027	2018	2058	
1162	0	2043	2071	2016	2038	
1163	0	2048	2083	2033	2033	
1164	0	2054	2090	2031	2014	
1165	0	2057	2057	2045	2021	
1166	0	2056	2061	2060	2024	
1167	0	2050	2039	2069	2051	
1168	0	2040	2026	2058	2092	
1169	0	2034	2025	2063	2079	
1170	0	2050	2041	2056	2056	
1171	0	2049	2070	2055	2038	
1172	0	2044	2086	2052	2068	
1173	0	2061	2081	2059	2054	
1174	0	2072	2081	2061	2036	
1175	0	2064	2068	2046	2013	
1176	0	2061	2050	2049	2028	
1177	0	2054	2030	2062	2040	
1178	0	2043	2021	2060	2071	
1179	0	2041	2031	2041	2053	
1180	0	2028	2019	2037	2073	
1181	0	2034	2041	2032	2042	
1182	0	2050	2095	2038	2037	
1183	0	2053	2086	2047	2024	
1184	0	2056	2062	2048	2037	
1185	0	2048	2045	2040	2034	
1186	0	2030	2016	2041	2076	
1187	0	2025	2002	2038	2073	
1188	0	2038	2024	2042	2074	
1189	0	2052	2054	2056	2061	
1190	0	2072	2081	2065	2060	
1191	0	2076	2058	2067	2048	
1192	0	2066	2041	2056	2054	
1193	0	2061	2053	2051	2029	
1194	0	2062	2054	2033	2019	
1195	0	2055	2064	2025	2016	
1196	0	2055	2076	2031	2020	
1197	0	2053	2058	2023	2031	
1198	0	2035	2037	2011	2059	
1199	0	2038	2039	2024	2077	
1200	0	2039	2039	2038	2048	
1201	0	2037	2040	2046	2051	
1202	0	2041	2052	2050	2037	
1203	0	2044	2048	2052	2050	
1204	0	2041	2027	2062	2046	
1205	0	2048	2026	2062	2061	
1206	0	2052	2039	2059	2026	
1207	0	2055	2057	2053	2025	
1208	0	2054	2061	2061	2015	
1209	0	2052	2046	2052	2090	
1210	0	2054	2046	2053	2069	
1211	0	2052	2043	2061	2069	
1212	0	2061	2064	2073	2031	
1213	0	2052	2046	2068	2054	
1214	0	2048	2042	2044	2036	
1215	0	2049	2056	2034	2053	
1216	0	2054	2045	2050	2075	
1217	0	2044	2038	2044	2063	
1218	0	2034	2030	2024	2079	
1219	0	2047	2040	2039	2058	
1220	0	2059	2069	2067	2046	
1221	0	2056	2066	2063	2044	
1222	0	2050	2057	2062	2040	
1223	0	2046	2058	2056	2034	
1224	0	2041	2045	2035	2025	
1225	0	2045	2042	2017	2042	
1226	0	2047	2054	2027	2026	
1227	0	2048	2050	2043	2039	
1228	0	2054	2052	2047	2042	
1229	0	2042	2049	2040	2059	
1230	0	2038	2034	2028	2050	
1231	0	2034	2036	2035	2042	
1232	0	2059	2062	2047	2024	
1233	0	2066	2070	2069	2025	
1234	0	2066	2062	2072	2023	
1235	0	2059	2051	2056	2049	
1236	0	2048	2037	2059	2043	
1237	0	2040	2035	2044	2059	
1238	0	2041	2036	2056	2073	
1239	0	2044	2047	2050	2076	
1240	0	2043	2038	2041	2062	
1241	0	2051	2049	2061	2071	
1242	0	2056	2062	2067	2040	
1243	0	2059	2074	2053	2038	
1244	0	2059	2076	2052	2024	
1245	0	2052	2074	2053	2030	
1246	0	2045	2054	2053	2036	
1247	0	2041	2012	2047	2065	
1248	0	2035	1975	2026	2058	
1249	0	2036	2001	2040	2069	
1250	0	2046	2044	2044	2055	
1251	0	2060	2073	2044	2050	
1252	0	2061	2069	2053	2037	
1253	0	2049	2044	2028	2042	
1254	0	2024	2020	2025	2065	
1255	0	2026	2030	2046	2065	
1256	0	2047	2066	2051	2060	
1257	0	2063	2077	2057	2048	
1258	0	2065	2049	2062	2050	
1259	0	2041	2009	2040	2064	
1260	0	2033	2025	2047	2080	
1261	0	2044	2028	2065	2053	
1262	0	2057	2006	2096	2012	
1263	0	2074	2078	2111	1972	
1264	0	2080	2106	2086	2022	
1265	0	2081	2113	2072	2097	
1266	0	2058	2094	2041	2074	
1267	0	2040	2078	2010	2063	
1268	0	2043	2041	1998	2045	
1269	0	2038	2020	1985	2037	
1270	0	2030	2013	1986	2050	
1271	0	2030	2059	1982	2032	
1272	0	2053	2089	2012	2007	
1273	0	2056	2067	2042	2017	
1274	0	2050	2058	2044	2047	
1275	0	2051	2049	2055	2056	
1276	0	2060	2053	2065	2024	
1277	0	2057	2064	2055	2037	
1278	0	2054	2058	2048	2026	
1279	0	2052	2045	2056	2049	
1280	0	2041	2046	2038	2042	
1281	0	2038	2043	2039	2048	
1282	0	2044	2042	2056	2041	
1283	0	2045	2042	2061	2043	
1284	0	2049	2034	2058	2041	
1285	0	2049	2032	2058	2050	
1286	0	2051	2038	2065	2046	
1287	0	2050	2049	2055	2059	
1288	0	2050	2047	2062	2058	
1289	0	2052	2042	2067	2051	
1290	0	2051	2039	2066	2049	
1291	0	2053	2032	2072	2042	
1292	0	2053	2031	2059	2039	
1293	0	2047	2031	2038	2047	
1294	0	2042	2030	2026	2064	
1295	0	2032	2042	2021	2077	
1296	0	2036	2070	2028	2083	
1297	0	2036	2069	2036	2080	
1298	0	2042	2042	2046	2100	
1299	0	2038	2037	2023	2072	
1300	0	2042	2044	2018	2060	
1301	0	2053	2046	2038	2047	
1302	0	2064	2069	2072	2029	
1303	0	2071	2085	2072	2007	
1304	0	2068	2076	2065	2007	
1305	0	2065	2069	2072	2022	
1306	0	2062	2055	2059	2017	
1307	0	2057	2048	2043	2031	
1308	0	2049	2049	2028	2017	
1309	0	2044	2045	2026	2042	
1310	0	2040	2049	2036	2036	
1311	0	2042	2039	2034	2055	
1312	0	2041	2030	2046	2056	
1313	0	2049	2042	2055	2065	
1314	0	2058	2043	2057	2084	
1315	0	2053	2030	2055	2096	
1316	0	2067	2056	2069	2076	
1317	0	2057	2053	2066	2040	
1318	0	2032	2037	2053	2032	
1319	0	2047	2063	2058	2036	
1320	0	2068	2069	2060	2069	
1321	0	2049	2046	2061	2057	
1322	0	2041	2039	2068	2050	
1323	0	2043	2043	2054	2030	
1324	0	2041	2049	2045	2025	
1325	0	2033	2056	2031	2031	
1326	0	2031	2045	2029	2063	
1327	0	2033	2037	2015	2055	
1328	0	2043	2032	2018	2057	
1329	0	2043	2035	2034	2039	
1330	0	2057	2078	2026	2024	
1331	0	2053	2063	2036	2065	
1332	0	2046	2038	2044	2067	
1333	0	2061	2026	2048	2078	
1334	0	2072	2047	2061	2045	
1335	0	2063	2060	2063	2032	
1336	0	2059	2053	2061	2010	
1337	0	2049	2031	2062	2038	
1338	0	2037	2006	2072	2039	
1339	0	2046	2019	2076	2078	
1340	0	2064	2061	2088	2023	
1341	0	2068	2084	2100	2039	
1342	0	2074	2102	2092	2021	
1343	0	2073	2102	2063	2031	
1344	0	2055	2073	2038	2033	
1345	0	2042	2047	2007	2056	
1346	0	2039	2039	1994	2050	
1347	0	2039	2053	1996	2029	
1348	0	2036	2046	2008	2046	
1349	0	2039	2044	2012	2036	
1350	0	2043	2055	2026	2050	
1351	0	2035	2040	2036	2052	
1352	0	2029	2033	2040	2085	
1353	0	2037	2046	2053	2060	
1354	0	2048	2048	2104	2053	
1355	0	2055	2043	2116	2032	
1356	0	2052	2040	2112	2059	
1357	0	2053	2041	2076	2050	
1358	0	2057	2045	2045	2058	
1359	0	2055	2055	2029	2055	
1360	0	2057	2057	2010	2066	
1361	0	2051	2054	1991	2081	
1362	0	2051	2050	1986	2050	
1363	0	2043	2041	1993	2054	
1364	0	2041	2043	2007	2034	
1365	0	2040	2052	2029	2042	
1366	0	2044	2051	2051	2031	
1367	0	2055	2068	2076	2044	
1368	0	2059	2069	2083	2033	
1369	0	2061	2059	2078	2026	
1370	0	2055	2041	2077	2033	
1371	0	2043	1998	2077	2028	
1372	0	2040	2024	2068	2032	
1373	0	2042	2035	2056	2013	
1374	0	2045	2035	2053	2051	
1375	0	2040	2042	2040	2103	
1376	0	2047	2038	2044	2072	
1377	0	2052	2041	2053	2052	
1378	0	2052	2049	2050	2072	
1379	0	2055	2054	2034	2066	
1380	0	2046	2065	2037	2070	
1381	0	2049	2063	2044	2064	
1382	0	2048	2048	2037	2064	
1383	0	2035	2035	2039	2063	
1384	0	2046	2043	2034	2038	
1385	0	2048	2051	2049	2005	
1386	0	2047	2064	2050	2011	
1387	0	2054	2074	2063	2054	
1388	0	2067	2063	2063	2040	
1389	0	2065	2053	2059	2028	
1390	0	2058	2047	2059	2042	
1391	0	2064	2050	2059	2039	
1392	0	2065	2059	2066	2015	
1393	0	2068	2070	2056	2009	
1394	0	2052	2034	2054	2090	
1395	0	2037	2020	2038	2061	
1396	0	2034	2012	2041	2062	
1397	0	2035	2032	2026	2066	
1398	0	2046	2069	2038	2059	
1399	0	2057	2086	2035	2038	
1400	0	2052	2077	2039	2044	
1401	0	2037	2052	2037	2058	
1402	0	2026	2027	2039	2060	
1403	0	2045	2042	2056	2053	
1404	0	2051	2055	2058	2033	
1405	0	2056	2054	2066	2021	
1406	0	2053	2043	2074	2023	
1407	0	2050	2040	2073	2041	
1408	0	2043	2036	2050	2046	
1409	0	2048	2050	2049	2049	
1410	0	2058	2059	2044	2040	
1411	0	2059	2054	2049	2041	
1412	0	2052	2047	2022	2064	
1413	0	2058	2054	2019	2058	
1414	0	2067	2059	2025	2054	
1415	0	2057	2047	2044	2068	
1416	0	2054	2050	2056	2070	
1417	0	2053	2050	2060	2076	
1418	0	2041	2038	2041	2072	
1419	0	2037	2039	2051	2048	
1420	0	2042	2050	2050	2023	
1421	0	2044	2052	2059	2021	
1422	0	2047	2061	2061	2030	
1423	0	2047	2056	2058	2034	
1424	0	2047	2053	2057	2043	
1425	0	2043	2052	2050	2055	
1426	0	2047	2057	2047	2049	
1427	0	2045	2038	2057	2050	
1428	0	2044	2018	2082	2035	
1429	0	2058	2019	2091	2015	
1430	0	2051	2052	2072	2014	
1431	0	2042	2062	2024	2030	
1432	0	2040	2059	2009	2083	
1433	0	2046	2030	2022	2102	
1434	0	2046	2026	2023	2061	
1435	0	2045	2050	2001	2047	
1436	0	2047	2059	2004	2044	
1437	0	2046	2053	2018	2037	
1438	0	2051	2058	2041	2045	
1439	0	2070	2093	2053	2020	
1440	0	2079	2102	2083	2009	
1441	0	2071	2073	2087	2021	
1442	0	2054	2053	2079	2045	
1443	0	2048	2051	2063	2046	
1444	0	2047	2043	2058	2056	
1445	0	2041	2032	2058	2059	
1446	0	2032	2027	2046	2074	
1447	0	2037	2029	2037	2045	
1448	0	2036	2033	2032	2040	
1449	0	2039	2047	2035	2019	
1450	0	2051	2054	2019	2037	
1451	0	2046	2041	2035	2033	
1452	0	2056	2041	2071	2056	
1453	0	2054	2031	2081	2062	
1454	0	2050	2029	2081	2101	
1455	0	2046	2042	2070	2050	
1456	0	2052	2047	2059	2041	
1457	0	2058	2065	2061	2045	
1458	0	2061	2076	2050	2050	
1459	0	2055	2069	2026	2054	
1460	0	2046	2047	2002	2053	
1461	0	2047	2068	2002	2035	
1462	0	2050	2056	2031	2062	
1463	0	2046	2041	2042	2047	
1464	0	2040	2037	2042	2064	
1465	0	2046	2047	2052	2054	
1466	0	2054	2052	2051	2046	
1467	0	2056	2052	2051	2060	
1468	0	2057	2056	2070	2038	
1469	0	2051	2057	2062	2049	
1470	0	2052	2054	2058	2031	
1471	0	2046	2037	2052	2044	
1472	0	2044	2039	2049	2050	
1473	0	2040	2033	2042	2049	
1474	0	2044	2038	2036	2036	
1475	0	2051	2057	2042	2026	
1476	0	2062	2061	2060	2040	
1477	0	2060	2058	2066	2031	
1478	0	2054	2053	2056	2052	
1479	0	2058	2053	2058	2046	
1480	0	2061	2060	2061	2038	
1481	0	2053	2045	2052	2063	
1482	0	2042	2038	2040	2047	
1483	0	2046	2045	2046	2036	
1484	0	2050	2048	2052	2040	
1485	0	2045	2048	2037	2051	
1486	0	2040	2052	2043	2046	
1487	0	2036	2039	2054	2049	
1488	0	2037	2034	2063	2067	
1489	0	2044	2024	2071	2065	
1490	0	2050	2028	2077	2063	
1491	0	2053	2037	2064	2063	
1492	0	2058	2053	2047	2042	
1493	0	2060	2054	2041	2054	
1494	0	2053	2049	2010	2046	
1495	0	2047	2054	1991	2060	
1496	0	2045	2059	1978	2042	
1497	0	2044	2055	1980	2048	
1498	0	2045	2061	1998	2042	
1499	0	2045	2055	2029	2048	
1500	0	2040	2052	2055	2031	
1501	0	2036	2053	2062	2039	
1502	0	2040	2048	2070	2046	
1503	0	2046	2047	2072	2037	
1504	0	2054	2056	2079	2046	
1505	0	2057	2051	2075	2035	
1506	0	2054	2049	2055	2047	
1507	0	2055	2053	2068	2033	
1508	0	2051	2046	2067	2042	
1509	0	2049	2042	2063	2032	
1510	0	2047	2044	2050	2048	
1511	0	2040	2034	2043	2042	
1512	0	2032	2028	2033	2062	
1513	0	2038	2043	2032	2051	
1514	0	2046	2051	2045	2074	
1515	0	2040	2013	2050	2076	
1516	0	2045	2020	2067	2091	
1517	0	2073	2082	2079	2023	
1518	0	2084	2117	2090	1987	
1519	0	2072	2119	2077	1973	
1520	0	2055	2072	2064	2046	
1521	0	2030	1987	2049	2065	
1522	0	2038	1973	2036	2066	
1523	0	2037	1986	2028	2030	
1524	0	2031	2005	2009	2059	
1525	0	2026	2030	1998	2081	
1526	0	2032	2069	1974	2125	
1527	0	2063	2097	1999	2109	
1528	0	2085	2088	2037	2056	
1529	0	2098	2132	2068	2012	
1530	0	2084	2115	2091	2016	
1531	0	2073	2090	2088	2016	
1532	0	2059	2066	2077	2008	
1533	0	2049	2047	2070	2044	
1534	0	2035	2039	2059	2057	
1535	0	2035	2028	2045	2079	
1536	0	2033	2029	2041	2048	
1537	0	2037	2040	2042	2047	
1538	0	2033	2030	2031	2028	
1539	0	2035	2033	2030	2043	
1540	0	2046	2040	2043	2027	
1541	0	2049	2041	2053	2039	
1542	0	2049	2040	2043	2030	
1543	0	2048	2054	2034	2037	
1544	0	2044	2047	2038	2033	
1545	0	2040	2022	2041	2042	
1546	0	2046	2035	2049	2033	
1547	0	2041	2025	2045	2035	
1548	0	2055	2052	2058	2057	
1549	0	2061	2088	2061	2082	
1550	0	2062	2093	2059	2082	
1551	0	2058	2055	2068	2062	
1552	0	2051	2025	2074	2051	
1553	0	2054	2044	2069	2040	
1554	0	2056	2051	2067	2045	
1555	0	2054	2050	2065	2060	
1556	0	2046	2044	2047	2057	
1557	0	2044	2030	2030	2050	
1558	0	2035	2028	2027	2055	
1559	0	2034	2041	2022	2055	
1560	0	2038	2056	2030	2039	
1561	0	2050	2059	2062	2042	
1562	0	2044	2054	2050	2039	
1563	0	2040	2032	2038	2052	
1564	0	2046	2020	2043	2062	
1565	0	2037	2019	2050	2026	
1566	0	2044	2045	2040	2023	
1567	0	2057	2072	2032	2025	
1568	0	2053	2061	2018	2039	
1569	0	2053	2071	2019	2058	
1570	0	2057	2087	2040	2043	
1571	0	2072	2078	2052	2048	
1572	0	2060	2054	2044	2072	
1573	0	2044	2046	2039	2056	
1574	0	2046	2042	2052	2040	
1575	0	2050	2043	2067	2053	
1576	0	2064	2048	2081	2047	
1577	0	2055	2037	2075	2076	
1578	0	2050	2050	2067	2067	
1579	0	2053	2054	2072	2056	
1580	0	2052	2062	2053	2032	
1581	0	2050	2052	2050	2019	
1582	0	2049	2046	2061	2025	
1583	0	2046	2040	2063	2041	
1584	0	2046	2044	2058	2011	
1585	0	2043	2044	2042	2013	
1586	0	2048	2051	2016	2034	
1587	0	2050	2041	2032	2113	
1588	0	2048	2026	2034	2132	
1589	0	2057	2034	2051	2097	
1590	0	2060	2048	2070	2059	
1591	0	2063	2052	2074	2030	
1592	0	2058	2065	2058	2030	
1593	0	2054	2062	2048	2041	
1594	0	2052	2061	2030	2044	
1595	0	2047	2059	1987	2041	
1596	0	2040	2049	1989	2060	
1597	0	2031	2041	1975	2052	
1598	0	2035	2048	1990	2032	
1599	0	2040	2059	2032	2041	
1600	0	2040	2040	2053	2036	
1601	0	2039	2030	2070	2045	
1602	0	2037	2038	2083	2041	
1603	0	2040	2035	2068	2042	
1604	0	2046	2045	2078	2042	
1605	0	2059	2068	2089	2047	
1606	0	2052	2049	2074	2050	
1607	0	2051	2039	2074	2057	
1608	0	2049	2046	2065	2030	
1609	0	2050	2081	2057	2020	
1610	0	2058	2079	2064	2018	
1611	0	2061	2066	2045	2060	
1612	0	2048	2017	2042	2058	
1613	0	2042	1989	2037	2062	
1614	0	2053	2006	2021	2038	
1615	0	2058	2059	2027	2044	
1616	0	2056	2081	2041	2040	
1617	0	2058	2072	2042	2046	
1618	0	2058	2062	2045	2043	
1619	0	2053	2055	2059	2049	
1620	0	2060	2048	2080	2055	
1621	0	2066	2052	2079	2046	
1622	0	2060	2049	2080	2053	
1623	0	2055	2042	2074	2043	
1624	0	2042	2045	2051	2059	
1625	0	2037	2045	2025	2045	
1626	0	2036	2040	2017	2042	
1627	0	2030	2039	2001	2051	
1628	0	2038	2051	1996	2043	
1629	0	2036	2056	2011	2037	
1630	0	2040	2061	2029	2025	
1631	0	2048	2064	2054	2045	
1632	0	2048	2063	2060	2038	
1633	0	2043	2047	2060	2054	
1634	0	2050	2052	2064	2038	
1635	0	2056	2054	2076	2040	
1636	0	2065	2058	2085	2032	
1637	0	2067	2060	2097	2043	
1638	0	2059	2043	2095	2053	
1639	0	2046	2024	2070	2082	
1640	0	2043	2030	2040	2088	
1641	0	2037	2027	2015	2078	
1642	0	2032	2031	1978	2054	
1643	0	2033	2033	1994	2080	
1644	0	2034	2048	2001	2048	
1645	0	2044	2053	2002	2037	
1646	0	2049	2060	2022	2033	
1647	0	2047	2054	2036	2049	
1648	0	2047	2045	2056	2038	
1649	0	2053	2051	2072	2035	
1650	0	2057	2066	2078	2030	
1651	0	2064	2061	2078	2040	
1652	0	2064	2054	2079	2040	
1653	0	2075	2059	2102	2052	
1654	0	2093	2066	2150	2084	
1655	0	2102	2070	2169	2049	
1656	0	2099	2056	2152	2038	
1657	0	2071	2047	2091	2032	
1658	0	2041	2028	1997	2064	
1659	0	2026	2030	1958	2057	
1660	0	2029	2043	1934	2044	
1661	0	2024	2059	1914	2058	
1662	0	2025	2051	1923	2050	
1663	0	2008	2043	1927	2050	
1664	0	1999	2056	1968	2024	
1665	0	1999	2050	2028	2040	
1666	0	2015	2042	2070	2031	
1667	0	2035	2053	2099	2046	
1668	0	2050	2044	2118	2041	
1669	0	2061	2036	2109	2049	
1670	0	2056	2042	2089	2042	
1671	0	2065	2041	2087	2052	
1672	0	2067	2040	2081	2045	
1673	0	2071	2052	2074	2042	
1674	0	2068	2048	2072	2050	
1675	0	2064	2048	2062	2051	
1676	0	2062	2050	2056	2056	
1677	0	2055	2046	2040	2046	
1678	0	2053	2050	2028	2059	
1679	0	2053	2052	2038	2048	
1680	0	2048	2045	2041	2054	
1681	0	2045	2047	2039	2044	
1682	0	2044	2050	2042	2051	
1683	0	2054	2053	2051	2044	
1684	0	2049	2044	2055	2054	
1685	0	2049	2050	2051	2037	
1686	0	2053	2045	2051	2047	
1687	0	2058	2054	2064	2038	
1688	0	2060	2054	2064	2037	
1689	0	2064	2060	2063	2029	
1690	0	2057	2052	2063	2022	
1691	0	2047	2054	2046	2053	
1692	0	2038	2043	2035	2063	
1693	0	2046	2046	2048	2069	
1694	0	2055	2065	2048	2045	
1695	0	2051	2057	2039	2074	
1696	0	2050	2042	2031	2073	
1697	0	2045	2042	2023	2055	
1698	0	2043	2051	2039	2057	
1699	0	2045	2048	2047	2047	
1700	0	2047	2047	2045	2053	
1701	0	2045	2052	2038	2031	
1702	0	2045	2059	2031	2042	
1703	0	2049	2050	2047	2034	
1704	0	2046	2052	2054	2045	
1705	0	2048	2049	2052	2036	
1706	0	2049	2046	2058	2041	
1707	0	2052	2051	2050	2039	
1708	0	2045	2054	2048	2034	
1709	0	2049	2043	2051	2050	
1710	0	2046	2038	2052	2055	
1711	0	2046	2040	2046	2053	
1712	0	2037	2038	2048	2042	
1713	0	2038	2041	2040	2047	
1714	0	2050	2059	2038	2035	
1715	0	2052	2060	2048	2048	
1716	0	2049	2051	2036	2053	
1717	0	2050	2052	2034	2042	
1718	0	2052	2046	2047	2051	
1719	0	2056	2049	2057	2047	
1720	0	2060	2047	2049	2063	
1721	0	2065	2054	2070	2068	
1722	0	2074	2056	2075	2066	
1723	0	2054	2046	2073	2085	
1724	0	2041	2043	2046	2053	
1725	0	2042	2046	2058	2033	
1726	0	2045	2052	2060	2027	
1727	0	2044	2054	2056	2021	
1728	0	2048	2049	2065	2037	
1729	0	2043	2041	2053	2037	
1730	0	2041	2040	2042	2052	
1731	0	2038	2046	2020	2052	
1732	0	2043	2047	1996	2053	
1733	0	2054	2048	2011	2061	
1734	0	2051	2046	2024	2045	
1735	0	2048	2047	2025	2065	
1736	0	2046	2050	2022	2046	
1737	0	2050	2053	2042	2049	
1738	0	2049	2052	2049	2042	
1739	0	2052	2055	2058	2039	
1740	0	2054	2060	2074	2043	
1741	0	2052	2047	2066	2035	
1742	0	2049	2043	2070	2043	
1743	0	2047	2056	2081	2031	
1744	0	2052	2050	2075	2039	
1745	0	2053	2049	2073	2042	
1746	0	2050	2052	2074	2048	
1747	0	2042	2040	2061	2054	
1748	0	2036	2031	2053	2055	
1749	0	2042	2042	2038	2060	
1750	0	2043	2038	2027	2050	
1751	0	2046	2048	2007	2045	
1752	0	2053	2066	2019	2046	
1753	0	2051	2063	2010	2044	
1754	0	2053	2053	2002	2049	
1755	0	2052	2047	2018	2037	
1756	0	2061	2049	2045	2037	
1757	0	2058	2049	2051	2036	
1758	0	2054	2037	2061	2054	
1759	0	2051	2040	2067	2040	
1760	0	2050	2051	2066	2057	
1761	0	2045	2044	2058	2075	
1762	0	2047	2048	2056	2068	
1763	0	2044	2052	2056	2049	
1764	0	2042	2048	2047	2062	
1765	0	2049	2051	2045	2048	
1766	0	2054	2059	2049	2029	
1767	0	2051	2052	2042	2029	
1768	0	2043	2044	2044	2044	
1769	0	2043	2055	2044	2035	
1770	0	2042	2051	2034	2035	
1771	0	2052	2052	2052	2035	
1772	0	2057	2046	2065	2050	
1773	0	2068	2051	2074	2057	
1774	0	2069	2048	2077	2066	
1775	0	2065	2049	2071	2063	
1776	0	2051	2050	2059	2056	
1777	0	2045	2054	2049	2050	
1778	0	2038	2038	2050	2054	
1779	0	2037	2031	2048	2048	
1780	0	2040	2042	2055	2041	
1781	0	2046	2043	2065	2042	
1782	0	2045	2039	2064	2036	
1783	0	2039	2043	2042	2035	
1784	0	2041	2045	2028	2030	
1785	0	2048	2042	2028	2026	
1786	0	2041	2041	2025	2039	
1787	0	2044	2046	2037	2051	
1788	0	2053	2067	2040	2054	
1789	0	2055	2074	2031	2040	
1790	0	2062	2070	2042	2059	
1791	0	2073	2063	2056	2056	
1792	0	2068	2054	2073	2070	
1793	0	2059	2038	2066	2072	
1794	0	2053	2050	2066	2052	
1795	0	2053	2051	2059	2032	
1796	0	2054	2051	2058	2031	
1797	0	2049	2046	2042	2027	
1798	0	2046	2042	2041	2066	
1799	0	2042	2053	2038	2046	
1800	0	2037	2052	2035	2026	
1801	0	2046	2074	2047	2062	
1802	0	2047	2082	2049	2069	
1803	0	2035	2034	2035	2061	
1804	0	2023	1997	2043	2054	
1805	0	2026	2001	2053	2059	
1806	0	2027	2003	2057	2044	
1807	0	2037	2020	2062	2041	
1808	0	2049	2020	2056	2028	
1809	0	2057	2050	2041	2037	
1810	0	2074	2087	2031	2014	
1811	0	2069	2068	2017	2029	
1812	0	2054	2056	2011	2037	
1813	0	2068	2080	2009	2037	
1814	0	2062	2091	2016	2029	
1815	0	2050	2057	2030	2038	
1816	0	2051	2046	2043	2040	
1817	0	2059	2059	2055	2048	
1818	0	2058	2044	2059	2048	
1819	0	2072	2064	2064	2047	
1820	0	2061	2055	2073	2083	
1821	0	2049	2028	2078	2111	
1822	0	2039	2027	2076	2100	
1823	0	2042	2039	2070	2089	
1824	0	2038	2053	2062	2047	
1825	0	2035	2053	2069	2018	
1826	0	2037	2044	2083	2027	
1827	0	2036	2043	2091	2047	
1828	0	2047	2046	2078	2044	
1829	0	2054	2044	2049	2010	
1830	0	2046	2030	2020	2032	
1831	0	2044	2046	1994	2002	
1832	0	2058	2060	2000	2023	
1833	0	2071	2075	2009	2039	
1834	0	2063	2066	1998	2072	
1835	0	2039	2048	1999	2043	
1836	0	2027	2042	2016	2090	
1837	0	2032	2039	2044	2084	
1838	0	2041	2038	2059	2088	
1839	0	2050	2054	2070	2070	
1840	0	2046	2055	2084	2055	
1841	0	2043	2046	2071	2051	
1842	0	2049	2052	2057	2044	
1843	0	2060	2053	2065	2031	
1844	0	2058	2054	2069	2015	
1845	0	2055	2054	2066	2032	
1846	0	2055	2045	2069	2028	
1847	0	2050	2038	2058	2037	
1848	0	2043	2034	2038	2032	
1849	0	2041	2029	2048	2051	
1850	0	2041	2030	2048	2048	
1851	0	2044	2034	2052	2064	
1852	0	2042	2038	2045	2051	
1853	0	2053	2064	2048	2045	
1854	0	2065	2077	2044	2005	
1855	0	2064	2066	2033	2028	
1856	0	2069	2068	2051	2027	
1857	0	2067	2062	2058	2080	
1858	0	2066	2052	2060	2059	
1859	0	2056	2051	2060	2046	
1860	0	2045	2054	2032	2034	
1861	0	2029	2026	2021	2092	
1862	0	2028	2029	2026	2097	
1863	0	2038	2043	2031	2048	
1864	0	2049	2068	2032	2048	
1865	0	2051	2076	2025	2049	
1866	0	2062	2077	2049	2031	
1867	0	2055	2061	2059	2037	
1868	0	2048	2037	2050	2037	
1869	0	2043	2022	2052	2068	
1870	0	2048	2052	2062	2030	
1871	0	2056	2063	2055	2030	
1872	0	2059	2050	2054	2035	
1873	0	2050	2046	2060	2065	
1874	0	2053	2052	2069	2054	
1875	0	2054	2043	2079	2063	
1876	0	2047	2034	2067	2054	
1877	0	2046	2044	2052	2056	
1878	0	2045	2048	2026	2038	
1879	0	2050	2052	2004	2044	
1880	0	2053	2055	2001	2034	
1881	0	2054	2052	2023	2035	
1882	0	2054	2055	2043	2048	
1883	0	2043	2046	2032	2045	
1884	0	2037	2043	2040	2046	
1885	0	2045	2046	2061	2035	
1886	0	2043	2039	2070	2039	
1887	0	2043	2039	2069	2028	
1888	0	2046	2055	2072	2024	
1889	0	2043	2047	2069	2038	
1890	0	2045	2042	2052	2066	
1891	0	2042	2053	2040	2069	
1892	0	2040	2045	2016	2069	
1893	0	2041	2033	2016	2058	
1894	0	2050	2064	2033	2063	
1895	0	2063	2076	2050	2042	
1896	0	2057	2045	2052	2054	
1897	0	2050	1994	2049	2072	
1898	0	2052	2023	2042	2057	
1899	0	2053	2047	2050	2064	
1900	0	2058	2057	2054	2043	
1901	0	2056	2062	2075	2034	
1902	0	2059	2047	2085	2018	
1903	0	2065	2066	2116	2057	
1904	0	2075	2087	2119	2030	
1905	0	2077	2092	2107	2040	
1906	0	2059	2065	2056	2031	
1907	0	2032	2046	1997	2046	
1908	0	2025	2016	1957	2055	
1909	0	2030	2028	1961	2057	
1910	0	2014	2020	1956	2069	
1911	0	2014	2035	1953	2026	
1912	0	2027	2059	1987	2039	
1913	0	2034	2042	2033	2069	
1914	0	2041	2048	2068	2032	
1915	0	2032	2027	2083	2020	
1916	0	2039	2010	2082	2065	
1917	0	2054	2047	2081	2043	
1918	0	2067	2067	2081	2035	
1919	0	2063	2065	2075	2045	
1920	0	2066	2067	2067	2074	
1921	0	2057	2056	2060	2084	
1922	0	2062	2062	2056	2054	
1923	0	2053	2048	2057	2051	
1924	0	2049	2044	2047	2036	
1925	0	2048	2046	2039	2046	
1926	0	2060	2070	2044	2020	
1927	0	2086	2105	2061	2012	
1928	0	2073	2056	2068	2018	
1929	0	2051	2043	2064	2050	
1930	0	2054	2057	2056	2054	
1931	0	2054	2051	2050	2064	
1932	0	2051	2053	2049	2055	
1933	0	2050	2043	2044	2041	
1934	0	2038	2031	2030	2050	
1935	0	2045	2048	2044	2044	
1936	0	2056	2044	2055	2050	
1937	0	2061	2048	2064	2053	
1938	0	2056	2054	2066	2059	
1939	0	2050	2046	2062	2046	
1940	0	2044	2044	2049	2056	
1941	0	2039	2043	2037	2041	
1942	0	2036	2038	2036	2044	
1943	0	2035	2037	2034	2046	
1944	0	2034	2038	2033	2082	
1945	0	2033	2034	2043	2041	
1946	0	2041	2045	2049	2037	
1947	0	2045	2050	2048	2024	
1948	0	2051	2046	2060	2036	
1949	0	2050	2050	2056	2039	
1950	0	2049	2045	2053	2039	
1951	0	2056	2046	2050	2048	
1952	0	2061	2058	2051	2032	
1953	0	2064	2063	2033	2032	
1954	0	2057	2052	2025	2046	
1955	0	2050	2048	2015	2078	
1956	0	2033	2023	2028	2088	
1957	0	2036	2022	2026	2084	
1958	0	2046	2057	2045	2058	
1959	0	2046	2057	2050	2065	
1960	0	2046	2061	2052	2058	
1961	0	2054	2064	2045	2078	
1962	0	2054	2058	2059	2015	
1963	0	2054	2055	2055	2002	
1964	0	2068	2075	2058	1985	
1965	0	2063	2067	2058	2027	
1966	0	2055	2053	2048	2059	
1967	0	2046	2044	2045	2070	
1968	0	2040	2038	2041	2097	
1969	0	2040	2046	2040	2077	
1970	0	2045	2054	2051	2056	
1971	0	2043	2049	2051	2027	
1972	0	2053	2062	2058	2038	
1973	0	2050	2042	2071	2035	
1974	0	2044	2024	2077	2041	
1975	0	2055	2036	2074	2016	
1976	0	2057	2038	2053	2033	
1977	0	2056	2048	2032	2060	
1978	0	2062	2062	2039	2048	
1979	0	2058	2042	2046	2065	
1980	0	2045	2046	2007	2043	
1981	0	2036	2043	1988	2051	
1982	0	2037	2043	2007	2030	
1983	0	2037	2042	2026	2040	
1984	0	2041	2041	2035	2061	
1985	0	2042	2055	2043	2045	
1986	0	2045	2064	2059	2042	
1987	0	2050	2071	2067	2029	
1988	0	2049	2059	2070	2055	
1989	0	2049	2039	2061	2046	
1990	0	2054	2056	2056	2046	
1991	0	2060	2048	2071	2042	
1992	0	2058	2035	2066	2059	
1993	0	2059	2046	2069	2055	
1994	0	2063	2062	2071	2038	
1995	0	2069	2069	2073	2053	
1996	0	2061	2054	2066	2050	
1997	0	2056	2045	2064	2064	
1998	0	2058	2049	2070	2050	
1999	0	2055	2042	2054	2068	
2000	0	2048	2043	2044	2050	
2001	0	2043	2044	2046	2052	
2002	0	2044	2044	2049	2039	
2003	0	2039	2047	2050	2042	
2004	0	2041	2038	2038	2044	
2005	0	2031	2030	2035	2033	
2006	0	2021	2023	2031	2049	
2007	0	2020	2017	2024	2040	
2008	0	2036	2033	2044	2034	
2009	0	2065	2081	2057	2033	
2010	0	2056	2067	2040	2071	
2011	0	2048	2062	2040	2057	
2012	0	2055	2067	2039	2020	
2013	0	2041	2008	2023	2053	
2014	0	2049	2030	2012	2154	
2015	0	2057	2065	2016	2080	
2016	0	2056	2061	2018	2037	
2017	0	2057	2076	2025	2020	
2018	0	2063	2081	2035	2013	
2019	0	2063	2074	2034	2011	
2020	0	2060	2066	2042	2003	
2021	0	2058	2062	2059	2022	
2022	0	2049	2053	2060	2014	
2023	0	2039	2042	2064	2038	
2024	0	2037	2039	2060	2037	
2025	0	2039	2039	2057	2066	
2026	0	2037	2032	2053	2061	
2027	0	2031	2034	2046	2093	
2028	0	2031	2028	2045	2083	
2029	0	2034	2033	2038	2101	
2030	0	2044	2050	2045	2070	
2031	0	2050	2050	2056	2048	
2032	0	2056	2052	2055	2032	
2033	0	2054	2043	2044	2031	
2034	0	2048	2036	2046	2031	
2035	0	2047	2049	2059	2032	
2036	0	2049	2045	2067	2038	
2037	0	2045	2026	2055	2036	
2038	0	2055	2056	2063	2030	
2039	0	2064	2067	2059	2050	
2040	0	2060	2062	2040	2041	
2041	0	2063	2065	2040	2039	
2042	0	2060	2054	2048	2047	
2043	0	2043	2030	2038	2054	
2044	0	2040	2042	2036	2057	
2045	0	2049	2049	2043	2083	
2046	0	2051	2051	2051	2039	
2047	0	2062	2077	2058	2037	
2048	0	2074	2081	2057	2017	
2049	0	2076	2077	2067	2041	
2050	0	2068	2055	2069	2029	
2051	0	2045	2037	2059	2042	
2052	0	2036	2034	2043	2050	
2053	0	2033	2024	2042	2065	
2054	0	2031	2028	2035	2076	
2055	0	2029	2028	2043	2092	
2056	0	2040	2023	2054	2071	
2057	0	2054	2050	2069	2069	
2058	0	2067	2053	2080	2070	
2059	0	2069	2065	2092	2030	
2060	0	2070	2076	2087	2021	
2061	0	2059	2061	2071	2037	
2062	0	2048	2061	2028	2031	
2063	0	2039	2044	2001	2057	
2064	0	2037	2045	1988	2047	
2065	0	2035	2050	1951	2065	
2066	0	2037	2041	1955	2047	
2067	0	2028	2048	1974	2052	
2068	0	2022	2029	1987	2033	
2069	0	2030	2039	2026	2035	
2070	0	2042	2050	2067	2030	
2071	0	2050	2058	2089	2039	
2072	0	2052	2060	2085	2050	
2073	0	2059	2060	2087	2036	
2074	0	2068	2060	2100	2048	
2075	0	2069	2056	2097	2038	
2076	0	2060	2031	2082	2056	
2077	0	2050	2022	2065	2034	
2078	0	2056	2047	2061	2030	
2079	0	2057	2056	2054	2026	
2080	0	2054	2062	2058	2061	
2081	0	2054	2027	2075	2054	
2082	0	2057	2035	2074	2070	
2083	0	2042	2036	2070	2053	
2084	0	2032	2034	2048	2058	
2085	0	2049	2072	2027	2036	
2086	0	2057	2068	2014	2058	
2087	0	2059	2055	2007	2047	
2088	0	2043	2057	2017	2054	
2089	0	2041	2067	2011	2025	
2090	0	2039	2073	2004	2033	
2091	0	2053	2071	2026	2038	
2092	0	2047	2047	2049	2074	
2093	0	2046	2016	2055	2067	
2094	0	2059	2033	2076	2048	
2095	0	2075	2063	2075	2022	
2096	0	2074	2058	2077	2037	
2097	0	2067	2064	2074	2029	
2098	0	2055	2051	2060	2051	
2099	0	2040	2034	2057	2055	
2100	0	2034	2032	2048	2070	
2101	0	2032	2029	2046	2037	
2102	0	2044	2040	2053	2040	
2103	0	2045	2048	2063	2030	
2104	0	2038	2039	2059	2049	
2105	0	2036	2032	2045	2040	
2106	0	2041	2038	2024	2060	
2107	0	2030	2036	2017	2067	
2108	0	2036	2036	2023	2076	
2109	0	2046	2065	2014	2040	
2110	0	2052	2069	2023	2059	
2111	0	2047	2053	2041	2077	
2112	0	2043	2043	2050	2078	
2113	0	2043	2025	2055	2061	
2114	0	2056	2021	2062	2052	
2115	0	2064	2036	2061	2028	
2116	0	2057	2055	2058	2042	
2117	0	2067	2087	2060	2028	
2118	0	2071	2092	2042	2027	
2119	0	2063	2090	2034	2012	
2120	0	2051	2067	2038	2033	
2121	0	2053	2078	2060	2027	
2122	0	2057	2077	2065	2043	
2123	0	2064	2082	2062	2019	
2124	0	2026	2044	2049	2061	
2125	0	2015	1992	2044	2062	
2126	0	2019	1943	2051	2072	
2127	0	2031	1982	2053	2076	
2128	0	2060	2064	2055	2055	
2129	0	2076	2124	2048	2026	
2130	0	2066	2094	2039	2033	
2131	0	2049	2064	2050	2049	
2132	0	2040	2027	2050	2042	
2133	0	2055	2022	2067	2040	
2134	0	2060	2042	2072	2009	
2135	0	2061	2054	2070	2032	
2136	0	2046	2025	2064	2109	
2137	0	2053	2028	2064	2092	
2138	0	2054	2045	2052	2080	
2139	0	2045	2035	2019	2048	
2140	0	2026	2030	2004	2026	
2141	0	2032	2055	1998	2012	
2142	0	2040	2049	2016	2050	
2143	0	2041	2053	2038	2065	
2144	0	2055	2076	2049	2023	
2145	0	2069	2092	2046	2019	
2146	0	2052	2062	2053	2087	
2147	0	2051	2073	2045	2045	
2148	0	2053	2067	2043	2060	
2149	0	2048	2045	2052	2052	
2150	0	2051	2045	2069	2044	
2151	0	2052	2060	2071	2033	
2152	0	2057	2056	2064	2056	
2153	0	2051	2039	2057	2058	
2154	0	2050	2047	2055	2042	
2155	0	2049	2049	2064	2051	
2156	0	2048	2042	2060	2035	
2157	0	2051	2046	2061	2044	
2158	0	2049	2038	2059	2041	
2159	0	2046	2038	2048	2065	
2160	0	2041	2037	2029	2038	
2161	0	2045	2037	2027	2042	
2162	0	2046	2042	2011	2024	
2163	0	2043	2044	2009	2033	
2164	0	2053	2068	2014	2028	
2165	0	2057	2060	2023	2047	
2166	0	2052	2037	2038	2067	
2167	0	2064	2058	2052	2056	
2168	0	2060	2062	2058	2060	
2169	0	2047	2050	2063	2064	
2170	0	2036	2036	2058	2055	
2171	0	2038	2023	2056	2066	
2172	0	2028	2017	2053	2069	
2173	0	2033	2019	2041	2070	
2174	0	2043	2041	2038	2026	
2175	0	2053	2055	2055	2044	
2176	0	2057	2063	2057	2046	
2177	0	2065	2072	2067	2042	
2178	0	2078	2086	2075	2033	
2179	0	2074	2074	2077	2024	
2180	0	2063	2067	2068	2022	
2181	0	2057	2060	2055	2045	
2182	0	2040	2046	2044	2043	
2183	0	2027	2036	2029	2050	
2184	0	2033	2036	2033	2038	
2185	0	2040	2038	2044	2054	
2186	0	2044	2041	2031	2064	
2187	0	2040	2036	2040	2054	
2188	0	2042	2040	2041	2053	
2189	0	2055	2063	2066	2045	
2190	0	2050	2061	2062	2070	
2191	0	2050	2054	2052	2077	
2192	0	2043	2037	2026	2071	
2193	0	2053	2038	2033	2065	
2194	0	2062	2041	2028	2048	
2195	0	2060	2046	2029	2066	
2196	0	2046	2046	2043	2042	
2197	0	2042	2041	2039	2050	
2198	0	2048	2039	2046	2033	
2199	0	2062	2055	2084	2048	
2200	0	2071	2046	2100	2034	
2201	0	2060	2041	2071	2045	
2202	0	2048	2058	2055	2014	
2203	0	2055	2068	2054	2023	
2204	0	2057	2073	2039	2050	
2205	0	2044	2062	2029	2065	
2206	0	2037	2054	2023	2045	
2207	0	2040	2044	2031	2039	
2208	0	2042	2037	2035	2040	
2209	0	2045	2046	2042	2067	
2210	0	2050	2051	2035	2054	
2211	0	2050	2048	2039	2058	
2212	0	2055	2051	2059	2054	
2213	0	2049	2056	2061	2051	
2214	0	2047	2043	2057	2060	
2215	0	2051	2038	2066	2078	
2216	0	2053	2041	2090	2051	
2217	0	2050	2033	2088	2041	
2218	0	2043	2049	2063	2027	
2219	0	2035	2053	2038	2006	
2220	0	2026	2043	2004	2041	
2221	0	2021	2036	1981	2053	
2222	0	2017	1997	1978	2080	
2223	0	2047	2056	2005	2063	
2224	0	2074	2105	2025	2011	
2225	0	2067	2039	2054	2052	
2226	0	2067	2042	2063	2070	
2227	0	2065	2068	2073	2070	
2228	0	2062	2077	2089	2054	
2229	0	2056	2066	2082	2051	
2230	0	2048	2046	2063	2034	
2231	0	2052	2052	2074	2043	
2232	0	2062	2049	2088	2037	
2233	0	2062	2054	2081	2047	
2234	0	2058	2061	2058	2031	
2235	0	2056	2055	2052	2040	
2236	0	2051	2047	2036	2018	
2237	0	2054	2064	2037	2032	
2238	0	2046	2056	2042	2014	
2239	0	2034	2041	2040	2055	
2240	0	2023	2023	2024	2090	
2241	0	2024	2016	2022	2095	
2242	0	2032	2025	2027	2064	
2243	0	2047	2037	2029	2054	
2244	0	2051	2036	2050	2036	
2245	0	2049	2036	2060	2050	
2246	0	2055	2047	2067	2038	
2247	0	2056	2055	2063	2060	
2248	0	2069	2073	2075	2036	
2249	0	2070	2079	2059	2047	
2250	0	2056	2057	2055	2042	
2251	0	2046	2045	2044	2050	
2252	0	2045	2047	2036	2039	
2253	0	2044	2044	2041	2036	
2254	0	2039	2034	2030	2070	
2255	0	2047	2044	2046	2045	
2256	0	2064	2058	2065	2024	
2257	0	2068	2071	2061	2005	
2258	0	2055	2049	2046	2041	
2259	0	2042	2030	2038	2055	
2260	0	2027	2010	2012	2079	
2261	0	2040	2029	2007	2054	
2262	0	2046	2057	2017	2056	
2263	0	2044	2092	2014	2044	
2264	0	2050	2093	2024	2044	
2265	0	2048	2066	2041	2038	
2266	0	2046	2052	2058	2056	
2267	0	2046	2044	2056	2058	
2268	0	2048	2036	2058	2047	
2269	0	2046	2043	2058	2025	
2270	0	2043	2036	2067	2035	
2271	0	2057	2046	2073	2063	
2272	0	2063	2056	2059	2060	
2273	0	2062	2057	2063	2027	
2274	0	2062	2062	2064	2039	
2275	0	2058	2063	2044	2030	
2276	0	2050	2053	2047	2042	
2277	0	2052	2050	2055	2041	
2278	0	2056	2054	2058	2067	
2279	0	2054	2043	2059	2053	
2280	0	2051	2034	2062	2070	
2281	0	2038	2023	2046	2052	
2282	0	2038	2032	2033	2067	
2283	0	2051	2051	2050	2033	
2284	0	2044	2057	2050	2043	
2285	0	2039	2053	2042	2032	
2286	0	2038	2048	2037	2052	
2287	0	2042	2052	2046	2018	
2288	0	2041	2042	2042	2056	
2289	0	2049	2046	2052	2049	
2290	0	2048	2047	2053	2050	
2291	0	2042	2047	2051	2056	
2292	0	2040	2033	2055	2024	
2293	0	2041	2026	2058	2056	
2294	0	2046	2030	2041	2046	
2295	0	2071	2065	2054	2043	
2296	0	2068	2068	2042	2067	
2297	0	2053	2044	2024	2100	
2298	0	2042	2048	2013	2098	
2299	0	2039	2043	2029	2073	
2300	0	2040	2043	2026	2062	
2301	0	2020	2024	2021	2045	
2302	0	2047	2063	2042	2020	
2303	0	2065	2100	2061	1987	
2304	0	2070	2094	2065	2023	
2305	0	2065	2080	2058	2017	
2306	0	2056	2080	2060	2031	
2307	0	2042	2040	2039	2027	
2308	0	2028	1992	2049	2060	
2309	0	2033	1975	2068	2080	
2310	0	2052	2011	2063	2085	
2311	0	2068	2060	2077	2064	
2312	0	2077	2096	2075	2019	
2313	0	2078	2109	2063	2014	
2314	0	2060	2081	2052	2028	
2315	0	2056	2063	2050	2031	
2316	0	2050	2058	2040	2044	
2317	0	2049	2051	2030	2043	
2318	0	2049	2042	2028	2062	
2319	0	2056	2039	2043	2045	
2320	0	2057	2049	2043	2046	
2321	0	2051	2047	2048	2039	
2322	0	2044	2037	2046	2038	
2323	0	2036	2033	2046	2069	
2324	0	2035	2036	2049	2060	
2325	0	2039	2046	2040	2070	
2326	0	2042	2052	2058	2065	
2327	0	2047	2057	2069	2046	
2328	0	2047	2056	2063	2042	
2329	0	2033	2017	2047	2030	
2330	0	2029	1997	2035	2051	
2331	0	2044	2031	2047	2035	
2332	0	2043	2043	2034	2052	
2333	0	2040	2055	2008	2043	
2334	0	2044	2061	2015	2047	
2335	0	2040	2043	2018	2073	
2336	0	2042	2026	2017	2051	
2337	0	2043	2036	2035	2053	
2338	0	2059	2063	2061	2036	
2339	0	2055	2053	2066	2021	
2340	0	2058	2048	2073	2040	
2341	0	2058	2063	2071	2049	
2342	0	2066	2082	2060	2053	
2343	0	2070	2073	2074	2037	
2344	0	2059	2056	2067	2045	
2345	0	2045	2044	2058	2051	
2346	0	2038	2032	2051	2056	
2347	0	2050	2037	2049	2050	
2348	0	2055	2055	2030	2052	
2349	0	2061	2081	2027	2077	
2350	0	2060	2078	2023	2046	
2351	0	2054	2054	2036	2052	
2352	0	2048	2050	2038	2033	
2353	0	2041	2042	2043	2042	
2354	0	2038	2046	2043	2035	
2355	0	2043	2050	2046	2054	
2356	0	2045	2037	2048	2042	
2357	0	2045	2033	2052	2051	
2358	0	2052	2041	2054	2040	
2359	0	2061	2060	2059	2051	
2360	0	2068	2078	2070	2025	
2361	0	2046	2064	2082	2043	
2362	0	2045	2030	2082	2037	
2363	0	2043	2014	2081	2063	
2364	0	2050	2014	2081	2050	
2365	0	2053	2018	2074	2053	
2366	0	2063	2053	2064	2043	
2367	0	2061	2056	2032	2043	
2368	0	2046	2051	1979	2035	
2369	0	2045	2060	1985	2059	
2370	0	2040	2044	2008	2086	
2371	0	2040	2044	2014	2080	
2372	0	2054	2062	2030	2039	
2373	0	2055	2058	2037	2037	
2374	0	2053	2063	2053	2028	
2375	0	2062	2086	2061	2029	
2376	0	2061	2074	2071	2032	
2377	0	2064	2070	2085	2037	
2378	0	2072	2084	2083	2010	
2379	0	2057	2054	2065	2049	
2380	0	2048	2031	2055	2058	
2381	0	2042	2039	2043	2070	
2382	0	2038	2044	2032	2050	
2383	0	2040	2041	2034	2059	
2384	0	2039	2039	2040	2041	
2385	0	2036	2036	2033	2049	
2386	0	2031	2030	2028	2043	
2387	0	2032	2038	2026	2059	
2388	0	2033	2032	2028	2056	
2389	0	2031	2030	2029	2056	
2390	0	2046	2039	2048	2037	
2391	0	2057	2051	2065	2042	
2392	0	2058	2052	2069	2025	
2393	0	2052	2038	2058	2045	
2394	0	2051	2045	2063	2039	
2395	0	2043	2033	2059	2053	
2396	0	2050	2038	2060	2039	
2397	0	2056	2043	2062	2051	
2398	0	2081	2084	2068	2032	
2399	0	2075	2076	2073	2042	
2400	0	2066	2063	2061	2044	
2401	0	2047	2043	2058	2068	
2402	0	2037	2031	2053	2054	
2403	0	2036	2033	2055	2054	
2404	0	2038	2034	2042	2059	
2405	0	2050	2056	2036	2046	
2406	0	2048	2076	2025	2029	
2407	0	2046	2070	1989	2061	
2408	0	2040	2052	2003	2040	
2409	0	2028	2023	2003	2029	
2410	0	2026	2024	2012	2067	
2411	0	2034	2045	2007	2056	
2412	0	2050	2088	2034	2049	
2413	0	2052	2086	2054	2039	
2414	0	2048	2075	2074	2035	
2415	0	2050	2052	2068	2064	
2416	0	2059	2031	2081	2041	
2417	0	2078	2052	2087	2050	
2418	0	2062	2045	2072	2084	
2419	0	2043	1992	2083	2040	
2420	0	2063	2028	2070	2023	
2421	0	2078	2076	2076	2028	
2422	0	2069	2086	2069	2034	
2423	0	2054	2062	2051	2041	
2424	0	2046	2048	2050	2034	
2425	0	2041	2034	2027	2063	
2426	0	2036	2044	2036	2054	
2427	0	2039	2063	2036	2026	
2428	0	2032	2036	2028	2053	
2429	0	2030	2020	2026	2064	
2430	0	2034	2026	2025	2071	
2431	0	2035	2033	2048	2078	
2432	0	2047	2054	2060	2048	
2433	0	2061	2058	2068	2032	
2434	0	2060	2060	2063	2044	
2435	0	2050	2048	2052	2042	
2436	0	2050	2059	2047	2041	
2437	0	2060	2062	2039	2035	
2438	0	2058	2046	2031	2025	
2439	0	2063	2046	2039	2043	
2440	0	2064	2052	2042	2037	
2441	0	2060	2048	2054	2042	
2442	0	2058	2056	2065	2072	
2443	0	2042	2038	2045	2074	
2444	0	2040	2032	2053	2083	
2445	0	2027	2015	2043	2078	
2446	0	2031	2044	2044	2051	
2447	0	2039	2061	2037	2038	
2448	0	2039	2074	2049	2031	
2449	0	2052	2076	2063	2028	
2450	0	2069	2078	2064	2038	
2451	0	2064	2053	2062	2035	
2452	0	2051	2051	2029	2038	
2453	0	2052	2054	2034	2037	
2454	0	2057	2050	2044	2024	
2455	0	2056	2055	2045	2045	
2456	0	2046	2036	2034	2052	
2457	0	2057	2040	2042	2047	
2458	0	2066	2056	2051	2034	
2459	0	2059	2058	2057	2033	
2460	0	2057	2056	2052	2046	
2461	0	2053	2040	2049	2076	
2462	0	2047	2036	2053	2099	
2463	0	2042	2042	2040	2081	
2464	0	2038	2017	2046	2066	
2465	0	2015	1996	2033	2056	
2466	0	2034	2045	2048	2009	
2467	0	2051	2089	2048	2031	
2468	0	2041	2074	2026	2043	
2469	0	2032	2060	2033	2050	
2470	0	2022	2050	2031	2049	
2471	0	2036	2037	2056	2037	
2472	0	2047	2027	2054	2036	
2473	0	2066	2060	2065	2011	
2474	0	2080	2080	2073	2021	
2475	0	2074	2050	2064	2025	
2476	0	2070	2050	2069	2023	
2477	0	2061	2041	2048	2069	
2478	0	2049	2019	2040	2107	
2479	0	2051	2034	2039	2099	
2480	0	2050	2054	2037	2049	
2481	0	2054	2059	2044	2044	
2482	0	2051	2058	2031	2036	
2483	0	2061	2064	2063	2027	
2484	0	2065	2062	2088	2033	
2485	0	2062	2053	2099	2038	
2486	0	2052	2041	2096	2053	
2487	0	2040	2039	2060	2040	
2488	0	2036	2045	2049	2055	
2489	0	2033	2036	2017	2043	
2490	0	2039	2039	1988	2047	
2491	0	2032	2050	1964	2035	
2492	0	2021	2026	1954	2078	
2493	0	2026	2032	1971	2059	
2494	0	2037	2043	2019	2039	
2495	0	2052	2044	2061	2041	
2496	0	2061	2057	2090	2038	
2497	0	2070	2058	2093	2064	
2498	0	2068	2057	2096	2078	
2499	0	2067	2073	2091	2093	
2500	0	2068	2082	2079	2100	
2501	0	2057	2063	2086	2064	
2502	0	2056	2069	2093	2022	
2503	0	2034	2045	2072	2026	
2504	0	2025	2046	2035	2022	
2505	0	2036	2057	2024	2036	
2506	0	2046	2053	2010	2007	
2507	0	2060	2049	2019	2025	
2508	0	2063	2072	2032	2012	
2509	0	2053	2063	2018	2038	
2510	0	2045	2042	2010	2047	
2511	0	2035	2032	2022	2067	
2512	0	2029	2011	2041	2047	
2513	0	2038	2011	2042	2065	
2514	0	2070	2045	2073	2037	
2515	0	2066	2061	2078	2052	
2516	0	2071	2058	2077	2040	
2517	0	2072	2063	2080	2045	
2518	0	2060	2063	2061	2021	
2519	0	2046	2045	2048	2033	
2520	0	2053	2048	2052	2029	
2521	0	2045	2043	2053	2070	
2522	0	2043	2033	2041	2086	
2523	0	2038	2050	2030	2075	
2524	0	2039	2057	2039	2044	
2525	0	2046	2056	2033	2053	
2526	0	2045	2060	2031	2054	
2527	0	2046	2045	2038	2054	
2528	0	2047	2032	2043	2050	
2529	0	2052	2043	2051	2048	
2530	0	2055	2043	2048	2039	
2531	0	2056	2042	2063	2031	
2532	0	2052	2049	2070	2034	
2533	0	2047	2040	2050	2034	
2534	0	2047	2047	2042	2031	
2535	0	2050	2065	2055	2016	
2536	0	2047	2059	2042	2041	
2537	0	2035	2037	2034	2076	
2538	0	2039	2036	2041	2064	
2539	0	2042	2046	2049	2046	
2540	0	2045	2040	2050	2063	
2541	0	2053	2039	2059	2083	
2542	0	2049	2038	2069	2057	
2543	0	2048	2050	2062	2052	
2544	0	2054	2070	2061	2063	
2545	0	2053	2057	2035	2079	
2546	0	2050	2052	2011	2046	
2547	0	2046	2048	2004	2049	
2548	0	2050	2051	2009	2026	
2549	0	2047	2052	2011	2032	
2550	0	2052	2059	2024	2017	
2551	0	2051	2054	2056	2037	
2552	0	2052	2054	2055	2034	
2553	0	2041	2038	2059	2071	
2554	0	2046	2026	2082	2060	
2555	0	2053	2017	2094	2066	
2556	0	2045	2021	2085	2030	
2557	0	2048	2033	2070	2047	
2558	0	2055	2066	2070	2050	
2559	0	2067	2086	2066	2049	
2560	0	2075	2095	2064	2030	
2561	0	2067	2079	2049	2044	
2562	0	2054	2056	2030	2034	
2563	0	2052	2057	2032	2042	
2564	0	2055	2057	2049	2027	
2565	0	2049	2052	2047	2040	
2566	0	2046	2053	2043	2039	
2567	0	2044	2044	2054	2055	
2568	0	2035	2034	2045	2042	
2569	0	2033	2037	2023	2057	
2570	0	2031	2028	2023	2043	
2571	0	2034	2033	2033	2056	
2572	0	2038	2038	2038	2031	
2573	0	2046	2038	2039	2042	
2574	0	2047	2035	2051	2040	
2575	0	2048	2043	2053	2066	
2576	0	2054	2052	2046	2053	
2577	0	2061	2055	2055	2051	
2578	0	2061	2065	2068	2044	
2579	0	2061	2050	2066	2063	
2580	0	2055	2055	2061	2056	
2581	0	2051	2058	2070	2040	
2582	0	2047	2052	2062	2041	
2583	0	2037	2045	2029	2042	
2584	0	2034	2036	2026	2050	
2585	0	2040	2039	2021	2035	
2586	0	2046	2049	2015	2012	
2587	0	2046	2054	2010	2053	
2588	0	2038	2043	2018	2068	
2589	0	2044	2043	2014	2092	
2590	0	2051	2052	2045	2056	
2591	0	2057	2045	2063	2056	
2592	0	2052	2041	2068	2029	
2593	0	2051	2042	2055	2034	
2594	0	2038	2017	2056	2084	
2595	0	2051	2044	2057	2060	
2596	0	2065	2076	2049	2028	
2597	0	2047	2071	2044	2060	
2598	0	2046	2075	2057	2058	
2599	0	2054	2073	2061	2046	
2600	0	2062	2068	2066	2025	
2601	0	2068	2061	2074	2038	
2602	0	2062	2046	2077	2058	
2603	0	2060	2029	2065	2057	
2604	0	2056	2023	2056	2043	
2605	0	2060	2056	2051	2028	
2606	0	2052	2042	2055	2050	
2607	0	2049	2045	2041	2032	
2608	0	2032	2037	2027	2048	
2609	0	2030	2044	2023	2022	
2610	0	2036	2066	2033	2025	
2611	0	2048	2074	2047	2030	
2612	0	2058	2056	2051	2067	
2613	0	2050	2023	2055	2073	
2614	0	2059	2046	2058	2057	
2615	0	2062	2057	2058	2050	
2616	0	2047	2033	2048	2070	
2617	0	2035	2023	2036	2060	
2618	0	2063	2080	2034	2040	
2619	0	2058	2066	2033	2062	
2620	0	2044	2021	2039	2058	
2621	0	2050	2049	2032	2036	
2622	0	2047	2054	2041	2027	
2623	0	2054	2066	2039	2023	
2624	0	2050	2060	2072	2038	
2625	0	2042	2047	2069	2077	
2626	0	2042	2048	2066	2077	
2627	0	2038	2037	2061	2075	
2628	0	2028	2011	2058	2054	
2629	0	2055	2058	2059	2044	
2630	0	2070	2074	2061	2047	
2631	0	2063	2073	2060	2039	
2632	0	2060	2070	2040	2036	
2633	0	2054	2064	2023	2057	
2634	0	2046	2047	2031	2046	
2635	0	2048	2038	2042	2040	
2636	0	2038	2026	2031	2055	
2637	0	2042	2030	2042	2051	
2638	0	2047	2039	2041	2047	
2639	0	2051	2054	2051	2045	
2640	0	2054	2066	2055	2047	
2641	0	2048	2052	2059	2062	
2642	0	2054	2042	2060	2059	
2643	0	2043	2021	2054	2052	
2644	0	2049	2031	2057	2061	
2645	0	2048	2040	2058	2065	
2646	0	2043	2049	2055	2054	
2647	0	2046	2054	2041	2043	
2648	0	2052	2062	2036	2028	
2649	0	2060	2072	2042	2030	
2650	0	2055	2054	2038	2041	
2651	0	2044	2050	2028	2052	
2652	0	2038	2040	2029	2055	
2653	0	2035	2034	2022	2070	
2654	0	2037	2042	2034	2070	
2655	0	2050	2050	2040	2053	
2656	0	2049	2057	2048	2035	
2657	0	2053	2044	2042	2028	
2658	0	2048	2023	2057	2041	
2659	0	2042	2004	2067	2097	
2660	0	2045	2020	2084	2086	
2661	0	2068	2071	2080	2061	
2662	0	2070	2070	2097	2046	
2663	0	2075	2096	2108	2022	
2664	0	2067	2085	2102	2040	
2665	0	2056	2069	2049	2035	
2666	0	2052	2057	2028	2045	
2667	0	2044	2041	2012	2053	
2668	0	2047	2036	1999	2061	
2669	0	2040	2039	1995	2065	
2670	0	2036	2032	1988	2086	
2671	0	2045	2041	1984	2047	
2672	0	2044	2060	1983	2045	
2673	0	2044	2053	2013	2039	
2674	0	2033	2045	2033	2039	
2675	0	2030	2055	2041	2050	
2676	0	2043	2052	2059	2047	
2677	0	2051	2051	2071	2050	
2678	0	2048	2053	2081	2033	
2679	0	2046	2053	2075	2043	
2680	0	2048	2044	2071	2033	
2681	0	2054	2050	2074	2039	
2682	0	2050	2041	2061	2037	
2683	0	2062	2042	2057	2052	
2684	0	2061	2054	2059	2037	
2685	0	2062	2050	2067	2041	
2686	0	2051	2043	2054	2033	
2687	0	2048	2055	2048	2056	
2688	0	2041	2043	2034	2048	
2689	0	2037	2038	2027	2057	
2690	0	2039	2057	2019	2034	
2691	0	2043	2062	2037	2044	
2692	0	2042	2054	2039	2037	
2693	0	2051	2051	2052	2065	
2694	0	2050	2040	2065	2066	
2695	0	2055	2034	2062	2082	
2696	0	2055	2037	2068	2057	
2697	0	2064	2042	2079	2069	
2698	0	2066	2048	2072	2044	
2699	0	2053	2042	2064	2042	
2700	0	2049	2048	2048	2026	
2701	0	2036	2039	2023	2044	
2702	0	2035	2038	2019	2024	
2703	0	2051	2058	2029	2039	
2704	0	2056	2068	2037	2035	
2705	0	2035	2038	2029	2048	
2706	0	2036	2034	2029	2042	
2707	0	2034	2030	2024	2062	
2708	0	2046	2047	2039	2082	
2709	0	2062	2083	2055	2061	
2710	0	2067	2092	2056	2050	
2711	0	2070	2080	2063	2054	
2712	0	2060	2060	2054	2027	
2713	0	2046	2048	2040	2040	
2714	0	2045	2036	2051	2033	
2715	0	2055	2049	2057	2047	
2716	0	2054	2045	2059	2062	
2717	0	2049	2042	2056	2061	
2718	0	2051	2054	2053	2031	
2719	0	2054	2044	2064	2056	
2720	0	2058	2046	2089	2049	
2721	0	2065	2060	2095	2040	
2722	0	2055	2045	2072	2049	
2723	0	2057	2065	2053	2030	
2724	0	2050	2060	2044	2025	
2725	0	2044	2045	2028	2018	
2726	0	2031	2003	2011	2052	
2727	0	2022	1998	1996	2050	
2728	0	2030	2034	2014	2047	
2729	0	2035	2053	2029	2053	
2730	0	2032	2014	2031	2056	
2731	0	2037	2037	2043	2052	
2732	0	2052	2060	2048	2042	
2733	0	2057	2076	2056	2047	
2734	0	2054	2072	2057	2045	
2735	0	2063	2052	2053	2069	
2736	0	2064	2074	2056	2077	
2737	0	2065	2057	2063	2079	
2738	0	2073	2054	2083	2054	
2739	0	2069	2069	2085	2031	
2740	0	2057	2054	2082	2040	
2741	0	2053	2049	2069	2046	
2742	0	2041	2047	2041	2039	
2743	0	2043	2064	2026	2042	
2744	0	2046	2044	2033	2071	
2745	0	2046	2024	2029	2062	
2746	0	2045	2046	2024	2056	
2747	0	2042	2034	2029	2047	
2748	0	2043	2027	2050	2024	
2749	0	2047	2042	2067	2038	
2750	0	2057	2052	2074	2050	
2751	0	2058	2050	2080	2070	
2752	0	2049	2042	2086	2057	
2753	0	2047	2044	2093	2052	
2754	0	2057	2069	2074	2036	
2755	0	2058	2055	2066	2046	
2756	0	2052	2044	2043	2060	
2757	0	2056	2055	2029	2056	
2758	0	2051	2047	2008	2039	
2759	0	2048	2039	1991	2025	
2760	0	2041	2063	1970	2022	
2761	0	2046	2064	1985	2012	
2762	0	2045	2051	2016	2047	
2763	0	2032	2044	2032	2033	
2764	0	2012	2007	2034	2043	
2765	0	2017	2011	2040	2036	
2766	0	2026	2032	2046	2041	
2767	0	2034	2040	2063	2069	
2768	0	2069	2089	2073	2035	
2769	0	2057	2085	2062	2033	
2770	0	2062	2094	2053	2065	
2771	0	2076	2075	2058	2089	
2772	0	2061	2058	2062	2052	
2773	0	2054	2047	2056	2040	
2774	0	2052	2049	2047	2041	
2775	0	2050	2043	2060	2041	
2776	0	2048	2041	2051	2053	
2777	0	2048	2044	2053	2043	
2778	0	2052	2042	2045	2041	
2779	0	2051	2046	2049	2043	
2780	0	2051	2049	2047	2050	
2781	0	2056	2044	2060	2032	
2782	0	2052	2038	2052	2029	
2783	0	2047	2044	2045	2019	
2784	0	2046	2047	2039	2008	
2785	0	2041	2058	2026	2034	
2786	0	2043	2052	2046	2093	
2787	0	2035	2007	2040	2096	
2788	0	2033	1999	2046	2089	
2789	0	2048	2036	2051	2053	
2790	0	2053	2058	2063	2039	
2791	0	2060	2075	2072	2041	
2792	0	2065	2064	2069	2048	
2793	0	2054	2038	2070	2062	
2794	0	2048	2027	2059	2058	
2795	0	2048	2025	2055	2057	
2796	0	2054	2053	2055	2036	
2797	0	2074	2100	2054	2012	
2798	0	2070	2086	2047	2041	
2799	0	2043	2065	2046	2074	
2800	0	2033	2055	2042	2102	
2801	0	2039	2056	2043	2103	
2802	0	2048	2056	2050	2076	
2803	0	2048	2038	2056	2040	
2804	0	2044	1998	2055	2020	
2805	0	2053	2039	2060	2009	
2806	0	2064	2070	2059	2005	
2807	0	2057	2066	2059	2024	
2808	0	2054	2046	2061	2041	
2809	0	2044	2041	2077	2042	
2810	0	2044	2050	2070	2027	
2811	0	2046	2042	2056	2028	
2812	0	2054	2049	2052	2035	
2813	0	2055	2048	2039	2068	
2814	0	2047	2025	2011	2078	
2815	0	2047	2023	2014	2079	
2816	0	2052	2039	2036	2074	
2817	0	2041	2061	2023	2064	
2818	0	2050	2083	2018	2046	
2819	0	2046	2073	2017	2037	
2820	0	2043	2081	2031	2057	
2821	0	2053	2060	2052	2030	
2822	0	2052	2052	2056	2059	
2823	0	2041	2036	2055	2067	
2824	0	2044	2037	2068	2070	
2825	0	2042	2042	2068	2044	
2826	0	2047	2040	2062	2047	
2827	0	2054	2041	2053	2031	
2828	0	2042	2028	2052	2057	
2829	0	2037	2036	2044	2036	
2830	0	2042	2040	2040	2044	
2831	0	2047	2041	2051	2043	
2832	0	2044	2054	2049	2064	
2833	0	2052	2061	2055	2036	
2834	0	2050	2048	2059	2063	
2835	0	2048	2019	2065	2068	
2836	0	2064	2048	2058	2033	
2837	0	2074	2083	2056	2023	
2838	0	2061	2076	2057	2056	
2839	0	2056	2049	2049	2033	
2840	0	2054	2042	2054	2033	
2841	0	2056	2045	2055	2030	
2842	0	2053	2044	2050	2047	
2843	0	2049	2058	2047	2054	
2844	0	2052	2063	2032	2063	
2845	0	2035	2033	2018	2083	
2846	0	2036	2035	2038	2083	
2847	0	2035	2017	2039	2072	
2848	0	2041	2039	2045	2040	
2849	0	2051	2054	2052	2034	
2850	0	2057	2054	2065	2022	
2851	0	2049	2053	2058	2029	
2852	0	2046	2047	2045	2026	
2853	0	2046	2052	2037	2024	
2854	0	2057	2071	2048	2014	
2855	0	2053	2056	2048	2026	
2856	0	2043	2037	2041	2079	
2857	0	2037	2021	2035	2058	
2858	0	2027	1997	2043	2088	
2859	0	2023	2007	2041	2097	
2860	0	2040	2030	2051	2031	
2861	0	2068	2102	2054	2052	
2862	0	2088	2139	2068	2076	
2863	0	2090	2095	2074	2046	
2864	0	2078	2043	2093	2053	
2865	0	2060	2018	2095	2055	
2866	0	2056	2036	2090	2044	
2867	0	2056	2050	2065	2042	
2868	0	2047	2050	2032	2036	
2869	0	2043	2061	1994	2022	
2870	0	2044	2063	1974	2018	
2871	0	2028	2054	1962	2044	
2872	0	2029	2052	1974	2052	
2873	0	2036	2054	1988	2042	
2874	0	2049	2065	2023	2038	
2875	0	2051	2066	2041	2051	
2876	0	2054	2051	2056	2055	
2877	0	2041	2048	2073	2053	
2878	0	2043	2050	2083	2061	
2879	0	2053	2047	2087	2053	
2880	0	2059	2043	2093	2052	
2881	0	2051	2042	2085	2050	
2882	0	2048	2048	2077	2041	
2883	0	2040	2038	2065	2044	
2884	0	2034	2023	2051	2056	
2885	0	2037	2033	2032	2065	
2886	0	2033	2019	2040	2052	
2887	0	2036	2020	2032	2048	
2888	0	2052	2053	2052	2040	
2889	0	2062	2068	2042	2033	
2890	0	2059	2064	2039	2040	
2891	0	2043	2040	2026	2051	
2892	0	2047	2037	2042	2048	
2893	0	2052	2044	2051	2033	
2894	0	2057	2052	2053	2024	
2895	0	2069	2081	2057	2022	
2896	0	2067	2060	2056	2049	
2897	0	2050	2040	2050	2049	
2898	0	2049	2047	2055	2044	
2899	0	2055	2062	2059	2047	
2900	0	2062	2066	2059	2043	
2901	0	2046	2054	2048	2047	
2902	0	2046	2053	2046	2044	
2903	0	2050	2050	2051	2032	
2904	0	2050	2047	2050	2027	
2905	0	2055	2050	2040	2024	
2906	0	2050	2056	2051	2030	
2907	0	2047	2042	2059	2062	
2908	0	2044	2033	2060	2099	
2909	0	2038	2024	2071	2120	
2910	0	2034	2029	2070	2096	
2911	0	2048	2053	2083	2065	
2912	0	2051	2059	2059	2046	
2913	0	2046	2055	2030	2045	
2914	0	2047	2057	1992	2037	
2915	0	2055	2053	2007	2018	
2916	0	2052	2061	1992	2006	
2917	0	2056	2063	1996	2015	
2918	0	2060	2055	2010	2062	
2919	0	2049	2043	2031	2047	
2920	0	2040	2044	2031	2044	
2921	0	2041	2047	2054	2049	
2922	0	2048	2046	2057	2050	
2923	0	2050	2044	2068	2046	
2924	0	2047	2043	2064	2040	
2925	0	2042	2038	2065	2039	
2926	0	2041	2045	2058	2033	
2927	0	2044	2052	2060	2017	
2928	0	2056	2057	2068	2009	
2929	0	2062	2060	2082	2022	
2930	0	2064	2045	2079	2047	
2931	0	2055	2037	2074	2073	
2932	0	2058	2037	2084	2097	
2933	0	2051	2037	2082	2099	
2934	0	2043	2032	2056	2098	
2935	0	2038	2032	2030	2078	
2936	0	2043	2050	2023	2066	
2937	0	2044	2058	2010	2046	
2938	0	2049	2069	2004	2026	
2939	0	2056	2067	2005	2027	
2940	0	2062	2072	2016	2024	
2941	0	2054	2061	2028	2023	
2942	0	2049	2049	2037	2045	
2943	0	2055	2049	2058	2045	
2944	0	2050	2056	2067	2046	
2945	0	2046	2065	2061	2047	
2946	0	2042	2050	2059	2047	
2947	0	2037	2027	2056	2041	
2948	0	2035	2006	2070	2043	
2949	0	2048	2041	2069	2037	
2950	0	2051	2051	2082	2037	
2951	0	2052	2046	2087	2042	
2952	0	2055	2044	2095	2051	
2953	0	2062	2044	2086	2059	
2954	0	2067	2049	2079	2055	
2955	0	2062	2056	2050	2052	
2956	0	2052	2048	2028	2058	
2957	0	2049	2049	2011	2061	
2958	0	2042	2055	1979	2057	
2959	0	2037	2046	1964	2047	
2960	0	2030	2043	1955	2045	
2961	0	2027	2045	1964	2032	
2962	0	2031	2047	1985	2031	
2963	0	2038	2050	2042	2042	
2964	0	2039	2051	2075	2039	
2965	0	2047	2050	2097	2028	
2966	0	2066	2060	2107	2035	
2967	0	2072	2065	2111	2070	
2968	0	2069	2063	2097	2078	
2969	0	2055	2059	2088	2055	
2970	0	2046	2044	2068	2046	
2971	0	2048	2040	2052	2054	
2972	0	2038	2030	2044	2055	
2973	0	2041	2035	2033	2060	
2974	0	2042	2040	2039	2057	
2975	0	2045	2042	2033	2056	
2976	0	2051	2050	2046	2048	
2977	0	2056	2052	2045	2037	
2978	0	2061	2055	2057	2044	
2979	0	2067	2057	2051	2041	
2980	0	2065	2061	2063	2031	
2981	0	2061	2053	2048	2046	
2982	0	2058	2058	2055	2054	
2983	0	2053	2055	2041	2066	
2984	0	2050	2048	2042	2062	
2985	0	2039	2040	2036	2061	
2986	0	2034	2032	2036	2050	
2987	0	2038	2036	2040	2050	
2988	0	2029	2033	2022	2042	
2989	0	2037	2049	2034	2033	
2990	0	2057	2086	2043	2031	
2991	0	2070	2092	2066	2030	
2992	0	2056	2030	2054	2046	
2993	0	2045	2028	2057	2066	
2994	0	2048	2033	2046	2072	
2995	0	2050	2027	2053	2078	
2996	0	2045	2006	2039	2063	
2997	0	2038	2014	2042	2058	
2998	0	2038	2035	2040	2051	
2999	0	2044	2062	2059	2024	
3000	0	2049	2092	2047	2003	
3001	0	2047	2079	2050	2022	
3002	0	2036	2045	2035	2057	
3003	0	2067	2075	2050	2034	
3004	0	2086	2082	2063	2045	
3005	0	2064	2054	2045	2056	
3006	0	2053	2054	2028	2050	
3007	0	2052	2050	2021	2045	
3008	0	2047	2045	2025	2046	
3009	0	2042	2044	2021	2060	
3010	0	2048	2053	2039	2028	
3011	0	2052	2053	2047	2034	
3012	0	2049	2042	2078	2038	
3013	0	2062	2058	2067	2060	
3014	0	2065	2070	2064	2051	
3015	0	2060	2071	2074	2032	
3016	0	2052	2055	2061	2046	
3017	0	2041	2032	2056	2060	
3018	0	2039	2023	2043	2054	
3019	0	2042	2019	2032	2051	
3020	0	2046	2041	2026	2055	
3021	0	2044	2050	2021	2070	
3022	0	2027	2024	2017	2070	
3023	0	2041	2048	2056	2077	
3024	0	2042	2063	2047	2058	
3025	0	2039	2054	2054	2050	
3026	0	2051	2048	2062	2032	
3027	0	2052	2044	2074	2033	
3028	0	2046	2043	2068	2054	
3029	0	2049	2048	2072	2057	
3030	0	2047	2041	2041	2052	
3031	0	2048	2037	2044	2043	
3032	0	2048	2034	2038	2054	
3033	0	2043	2025	2021	2047	
3034	0	2042	2033	2031	2034	
3035	0	2046	2049	2049	2036	
3036	0	2059	2071	2042	2038	
3037	0	2070	2089	2052	2049	
3038	0	2064	2072	2044	2059	
3039	0	2062	2049	2064	2056	
3040	0	2067	2061	2054	2041	
3041	0	2062	2070	2074	2038	
3042	0	2055	2053	2073	2029	
3043	0	2047	2031	2088	2024	
3044	0	2041	2037	2060	2047	
3045	0	2035	2053	2046	2032	
3046	0	2031	2069	2027	2039	
3047	0	2029	2058	2019	2034	
3048	0	2039	2056	1984	2062	
3049	0	2045	2046	1987	2063	
3050	0	2045	2046	2004	2050	
3051	0	2050	2050	2034	2048	
3052	0	2043	2056	2036	2058	
3053	0	2044	2054	2049	2070	
3054	0	2046	2030	2050	2080	
3055	0	2042	1987	2061	2069	
3056	0	2044	2012	2052	2067	
3057	0	2044	2033	2059	2069	
3058	0	2045	2059	2054	2053	
3059	0	2055	2061	2064	2031	
3060	0	2052	2042	2070	2039	
3061	0	2060	2038	2078	2023	
3062	0	2066	2071	2070	2004	
3063	0	2065	2073	2067	2001	
3064	0	2044	2049	2038	2029	
3065	0	2047	2053	2028	2039	
3066	0	2047	2043	2034	2030	
3067	0	2040	2039	2039	2068	
3068	0	2034	2046	2022	2096	
3069	0	2046	2060	2021	2066	
3070	0	2052	2070	2037	2041	
3071	0	2059	2079	2058	2033	
3072	0	2053	2057	2056	2047	
3073	0	2061	2084	2056	2048	
3074	0	2064	2091	2065	2051	
3075	0	2068	2064	2058	2055	
3076	0	2060	2031	2062	2057	
3077	0	2048	2018	2050	2065	
3078	0	2034	2003	2045	2093	
3079	0	2028	1990	2046	2096	
3080	0	2045	2019	2039	2077	
3081	0	2057	2066	2036	2040	
3082	0	2075	2089	2048	2012	
3083	0	2075	2085	2059	2006	
3084	0	2067	2069	2058	2014	
3085	0	2056	2062	2049	2008	
3086	0	2037	2045	2053	2032	
3087	0	2042	2053	2049	2018	
3088	0	2042	2064	2037	2021	
3089	0	2028	2013	2029	2056	
3090	0	2030	2005	2040	2044	
3091	0	2036	2041	2041	2055	
3092	0	2034	2047	2033	2073	
3093	0	2040	2041	2034	2045	
3094	0	2041	2045	2047	2048	
3095	0	2055	2059	2055	2041	
3096	0	2070	2072	2063	2060	
3097	0	2068	2059	2085	2054	
3098	0	2061	2051	2088	2026	
3099	0	2058	2060	2074	2029	
3100	0	2060	2065	2058	2030	
3101	0	2059	2072	2042	2064	
3102	0	2054	2041	2027	2095	
3103	0	2051	2037	2025	2078	
3104	0	2049	2028	2045	2047	
3105	0	2036	2027	2032	2035	
3106	0	2034	2030	2035	2050	
3107	0	2026	2024	2036	2063	
3108	0	2020	2017	2026	2070	
3109	0	2031	2034	2046	2050	
3110	0	2042	2058	2043	2052	
3111	0	2059	2069	2044	2042	
3112	0	2066	2071	2032	2025	
3113	0	2059	2049	2047	2035	
3114	0	2054	2043	2062	2044	
3115	0	2037	2055	2060	2036	
3116	0	2045	2064	2061	2032	
3117	0	2060	2078	2066	2030	
3118	0	2068	2068	2075	2058	
3119	0	2060	2048	2058	2068	
3120	0	2056	2056	2041	2049	
3121	0	2056	2063	2038	2036	
3122	0	2054	2052	2050	2033	
3123	0	2056	2045	2058	2048	
3124	0	2049	2041	2054	2056	
3125	0	2040	2026	2052	2056	
3126	0	2036	2027	2058	2037	
3127	0	2044	2033	2066	2043	
3128	0	2054	2046	2057	2043	
3129	0	2053	2053	2057	2049	
3130	0	2044	2043	2035	2050	
3131	0	2041	2048	2026	2058	
3132	0	2050	2079	2017	2045	
3133	0	2040	2056	2017	2057	
3134	0	2032	2032	2001	2064	
3135	0	2042	2042	2011	2052	
3136	0	2046	2039	2020	2049	
3137	0	2049	2046	2023	2029	
3138	0	2054	2050	2036	2054	
3139	0	2054	2045	2054	2049	
3140	0	2050	2053	2065	2056	
3141	0	2057	2045	2081	2050	
3142	0	2055	2042	2093	2031	
3143	0	2056	2049	2092	2043	
3144	0	2062	2052	2085	2033	
3145	0	2055	2050	2060	2036	
3146	0	2046	2056	2048	2037	
3147	0	2040	2041	2036	2041	
3148	0	2040	2060	2010	2052	
3149	0	2038	2051	2003	2040	
3150	0	2047	2049	2029	2050	
3151	0	2048	2050	2046	2067	
3152	0	2050	2043	2049	2056	
3153	0	2056	2051	2060	2062	
3154	0	2074	2061	2079	2058	
3155	0	2078	2055	2087	2060	
3156	0	2062	2057	2078	2051	
3157	0	2051	2052	2079	2044	
3158	0	2050	2064	2076	2060	
3159	0	2053	2066	2074	2045	
3160	0	2050	2063	2066	2050	
3161	0	2040	2062	2028	2031	
3162	0	2030	2051	2004	2056	
3163	0	2029	2038	1991	2058	
3164	0	2030	2007	1991	2042	
3165	0	2033	2000	1984	2055	
3166	0	2043	2038	2010	2026	
3167	0	2043	2068	2028	2034	
3168	0	2045	2062	2039	2027	
3169	0	2044	2050	2048	2046	
3170	0	2042	2043	2060	2037	
3171	0	2045	2038	2064	2043	
3172	0	2049	2046	2063	2047	
3173	0	2059	2049	2072	2043	
3174	0	2065	2044	2081	2057	
3175	0	2064	2053	2069	2052	
3176	0	2058	2042	2049	2074	
3177	0	2057	2047	2050	2059	
3178	0	2060	2056	2065	2059	
3179	0	2059	2056	2068	2044	
3180	0	2055	2054	2065	2038	
3181	0	2055	2059	2053	2029	
3182	0	2052	2053	2065	2026	
3183	0	2047	2050	2053	2039	
3184	0	2048	2054	2058	2048	
3185	0	2050	2057	2054	2050	
3186	0	2044	2048	2037	2061	
3187	0	2046	2035	2017	2060	
3188	0	2037	2026	2016	2054	
3189	0	2043	2036	2023	2046	
3190	0	2049	2046	2041	2041	
3191	0	2054	2060	2033	2059	
3192	0	2050	2073	2030	2063	
3193	0	2039	2062	2028	2063	
3194	0	2043	2051	2039	2062	
3195	0	2044	2048	2046	2051	
3196	0	2042	2047	2061	2048	
3197	0	2047	2045	2056	2068	
3198	0	2053	2044	2055	2062	
3199	0	2052	2036	2063	2052	
3200	0	2049	2035	2058	2056	
3201	0	2047	2037	2070	2042	
3202	0	2052	2054	2061	2023	
3203	0	2061	2073	2057	2013	
3204	0	2048	2056	2059	2026	
3205	0	2039	2039	2049	2044	
3206	0	2042	2028	2053	2047	
3207	0	2037	2036	2048	2054	
3208	0	2056	2071	2051	2047	
3209	0	2059	2083	2055	2043	
3210	0	2058	2066	2060	2046	
3211	0	2055	2054	2056	2036	
3212	0	2053	2042	2061	2035	
3213	0	2056	2043	2066	2028	
3214	0	2060	2045	2064	2042	
3215	0	2050	2046	2058	2046	
3216	0	2045	2040	2037	2059	
3217	0	2047	2046	2039	2051	
3218	0	2044	2053	2046	2058	
3219	0	2048	2054	2040	2042	
3220	0	2054	2045	2047	2061	
3221	0	2056	2046	2040	2050	
3222	0	2048	2051	2029	2051	
3223	0	2047	2056	2017	2051	
3224	0	2034	2039	2011	2052	
3225	0	2029	2030	2031	2070	
3226	0	2045	2050	2033	2045	
3227	0	2048	2060	2053	2022	
3228	0	2054	2070	2053	2035	
3229	0	2051	2053	2059	2037	
3230	0	2053	2047	2047	2056	
3231	0	2054	2046	2060	2040	
3232	0	2052	2051	2066	2056	
3233	0	2061	2045	2069	2046	
3234	0	2058	2044	2063	2047	
3235	0	2059	2050	2062	2029	
3236	0	2055	2056	2072	2044	
3237	0	2053	2049	2065	2064	
3238	0	2049	2044	2052	2056	
3239	0	2043	2035	2054	2060	
3240	0	2033	2026	2040	2036	
3241	0	2043	2005	2048	2056	
3242	0	2055	2027	2036	2053	
3243	0	2067	2077	2031	2032	
3244	0	2068	2096	2033	2002	
3245	0	2046	2074	2015	2066	
3246	0	2037	2052	2026	2099	
3247	0	2030	2044	2025	2084	
3248	0	2036	2039	2040	2064	
3249	0	2035	2035	2039	2032	
3250	0	2038	2047	2037	2046	
3251	0	2046	2063	2048	2039	
3252	0	2038	2051	2043	2029	
3253	0	2038	2028	2057	2025	
3254	0	2052	2060	2050	2041	
3255	0	2056	2065	2052	2043	
3256	0	2060	2051	2052	2038	
3257	0	2063	2057	2073	2025	
3258	0	2069	2061	2072	2022	
3259	0	2066	2059	2071	2030	
3260	0	2058	2046	2056	2042	
3261	0	2046	2043	2055	2066	
3262	0	2039	2040	2035	2077	
3263	0	2038	2040	2042	2074	
3264	0	2052	2041	2034	2074	
3265	0	2039	2037	2037	2063	
3266	0	2030	2028	2036	2053	
3267	0	2037	2033	2030	2042	
3268	0	2050	2039	2040	2037	
3269	0	2055	2042	2046	2037	
3270	0	2045	2032	2054	2033	
3271	0	2044	2036	2045	2029	
3272	0	2043	2056	2059	2027	
3273	0	2059	2083	2070	2032	
3274	0	2068	2092	2083	2048	
3275	0	2073	2083	2088	2060	
3276	0	2073	2071	2082	2035	
3277	0	2072	2065	2060	2048	
3278	0	2061	2053	2030	2052	
3279	0	2048	2040	2023	2052	
3280	0	2045	2034	2021	2061	
3281	0	2035	2028	2000	2048	
3282	0	2041	2037	2002	2048	
3283	0	2051	2058	2027	2042	
3284	0	2036	2050	2031	2027	
3285	0	2038	2064	2037	2029	
3286	0	2044	2049	2043	2017	
3287	0	2050	2056	2050	2040	
3288	0	2049	2034	2059	2077	
3289	0	2049	2012	2062	2051	
3290	0	2056	2038	2063	2047	
3291	0	2058	2041	2047	2056	
3292	0	2030	2027	2053	2059	
3293	0	2036	2036	2050	2087	
3294	0	2030	2037	2054	2121	
3295	0	2038	2055	2058	2087	
3296	0	2068	2080	2069	2045	
3297	0	2063	2070	2065	2027	
3298	0	2059	2070	2059	2018	
3299	0	2057	2073	2045	2022	
3300	0	2063	2074	2038	2014	
3301	0	2059	2041	2056	2021	
3302	0	2045	2023	2053	2047	
3303	0	2048	2041	2068	2029	
3304	0	2056	2050	2055	2047	
3305	0	2059	2050	2049	2055	
3306	0	2061	2056	2045	2034	
3307	0	2053	2055	2046	2041	
3308	0	2043	2047	2027	2066	
3309	0	2035	2034	2026	2062	
3310	0	2028	2028	2014	2046	
3311	0	2026	2038	1997	2052	
3312	0	2032	2059	1998	2064	
3313	0	2038	2064	2019	2054	
3314	0	2037	2060	2028	2059	
3315	0	2032	2049	2036	2059	
3316	0	2039	2031	2046	2056	
3317	0	2054	2024	2059	2044	
3318	0	2074	2049	2087	2041	
3319	0	2087	2068	2091	2023	
3320	0	2081	2066	2079	2024	
3321	0	2052	2044	2062	2034	
3322	0	2025	2000	2047	2077	
3323	0	2022	1990	2037	2065	
3324	0	2036	2024	2032	2050	
3325	0	2051	2067	2049	2026	
3326	0	2064	2112	2054	2016	
3327	0	2061	2117	2053	2036	
3328	0	2052	2069	2090	2036	
3329	0	2051	2021	2103	2021	
3330	0	2052	2016	2097	2017	
3331	0	2066	2054	2070	2003	
3332	0	2056	2054	2045	2019	
3333	0	2056	2043	2005	2102	
3334	0	2061	2060	1993	2096	
3335	0	2056	2068	1985	2082	
3336	0	2057	2068	1973	2082	
3337	0	2040	2042	1984	2097	
3338	0	2034	2037	2023	2088	
3339	0	2038	2041	2046	2050	
3340	0	2037	2054	2062	2016	
3341	0	2048	2065	2082	2003	
3342	0	2052	2068	2092	2017	
3343	0	2052	2058	2077	2063	
3344	0	2053	2064	2074	2039	
3345	0	2046	2058	2066	2040	
3346	0	2038	2016	2057	2062	
3347	0	2039	2023	2054	2058	
3348	0	2039	2023	2055	2049	
3349	0	2049	2036	2058	2042	
3350	0	2053	2040	2055	2062	
3351	0	2048	2038	2059	2053	
3352	0	2049	2058	2044	2041	
3353	0	2057	2061	2056	2056	
3354	0	2062	2056	2047	2056	
3355	0	2071	2069	2053	2048	
3356	0	2055	2047	2043	2038	
3357	0	2049	2041	2049	2028	
3358	0	2051	2053	2034	2021	
3359	0	2049	2056	2037	2033	
3360	0	2043	2047	2025	2047	
3361	0	2044	2053	2033	2030	
3362	0	2042	2047	2031	2039	
3363	0	2046	2050	2050	2047	
3364	0	2050	2049	2047	2031	
3365	0	2036	2036	2055	2033	
3366	0	2046	2038	2050	2064	
3367	0	2047	2045	2053	2068	
3368	0	2046	2062	2036	2064	
3369	0	2055	2070	2041	2038	
3370	0	2054	2077	2033	2031	
3371	0	2053	2067	2043	2031	
3372	0	2048	2042	2023	2035	
3373	0	2048	2011	2028	2057	
3374	0	2042	2029	2015	2044	
3375	0	2041	2037	2025	2042	
3376	0	2039	2035	2033	2043	
3377	0	2045	2042	2055	2052	
3378	0	2059	2058	2064	2056	
3379	0	2052	2038	2076	2065	
3380	0	2056	2042	2079	2081	
3381	0	2057	2040	2066	2061	
3382	0	2062	2062	2058	2027	
3383	0	2057	2068	2042	2042	
3384	0	2050	2060	2031	2007	
3385	0	2046	2055	2041	2040	
3386	0	2046	2053	2042	2059	
3387	0	2058	2059	2054	2078	
3388	0	2053	2052	2056	2041	
3389	0	2045	2053	2047	2018	
3390	0	2044	2067	2050	1994	
3391	0	2049	2066	2055	2019	
3392	0	2039	2033	2044	2071	
3393	0	2041	2011	2044	2090	
3394	0	2049	2025	2056	2068	
3395	0	2058	2050	2056	2059	
3396	0	2055	2044	2051	2037	
3397	0	2049	2044	2049	2033	
3398	0	2047	2049	2046	2023	
3399	0	2038	2032	2029	2050	
3400	0	2038	2044	2026	2044	
3401	0	2048	2065	2024	2045	
3402	0	2058	2066	2022	2048	
3403	0	2070	2063	2038	2044	
3404	0	2078	2064	2052	2045	
3405	0	2075	2074	2077	2060	
3406	0	2059	2054	2074	2044	
3407	0	2041	2041	2057	2063	
3408	0	2030	2031	2052	2064	
3409	0	2031	2033	2050	2052	
3410	0	2029	2036	2043	2045	
3411	0	2027	2046	2037	2037	
3412	0	2036	2048	2045	2040	
3413	0	2043	2063	2044	2050	
3414	0	2047	2061	2044	2043	
3415	0	2055	2031	2053	2040	
3416	0	2046	2015	2053	2047	
3417	0	2036	2024	2044	2081	
3418	0	2063	2048	2054	2035	
3419	0	2070	2054	2060	2028	
3420	0	2061	2060	2050	2028	
3421	0	2061	2059	2058	2040	
3422	0	2062	2064	2072	2041	
3423	0	2057	2074	2071	2044	
3424	0	2056	2068	2064	2050	
3425	0	2057	2045	2063	2045	
3426	0	2046	2035	2048	2057	
3427	0	2049	2044	2048	2056	
3428	0	2054	2042	2043	2065	
3429	0	2051	2046	2014	2061	
3430	0	2036	2049	2000	2064	
3431	0	2033	2045	2008	2057	
3432	0	2032	2033	2016	2036	
3433	0	2029	2026	2043	2054	
3434	0	2037	2033	2057	2045	
3435	0	2055	2044	2072	2055	
3436	0	2058	2058	2077	2038	
3437	0	2062	2067	2077	2041	
3438	0	2052	2042	2077	2021	
3439	0	2053	2035	2085	2036	
3440	0	2052	2049	2062	2029	
3441	0	2056	2065	2035	2042	
3442	0	2051	2062	2018	2030	
3443	0	2053	2073	2005	2052	
3444	0	2069	2088	2003	2055	
3445	0	2060	2052	2002	2085	
3446	0	2031	2029	2008	2084	
3447	0	2031	2041	2026	2107	
3448	0	2034	2071	2053	2073	
3449	0	2035	2068	2060	2035	
3450	0	2036	2034	2058	2030	
3451	0	2037	2033	2052	2016	
3452	0	2042	2033	2046	2032	
3453	0	2038	2022	2052	2060	
3454	0	2049	2040	2066	2043	
3455	0	2065	2043	2072	2040	
3456	0	2073	2060	2074	2016	
3457	0	2075	2084	2071	2043	
3458	0	2065	2064	2070	2041	
3459	0	2066	2050	2060	2043	
3460	0	2055	2049	2052	2053	
3461	0	2056	2048	2056	2036	
3462	0	2047	2041	2063	2047	
3463	0	2047	2051	2057	2018	
3464	0	2048	2054	2049	2031	
3465	0	2042	2041	2053	2021	
3466	0	2040	2022	2038	2063	
3467	0	2034	1998	2027	2081	
3468	0	2028	2006	2040	2081	
3469	0	2038	2033	2045	2043	
3470	0	2060	2067	2043	2055	
3471	0	2048	2051	2032	2069	
3472	0	2055	2044	2029	2039	
3473	0	2067	2075	2033	2050	
3474	0	2074	2095	2034	2064	
3475	0	2064	2088	2034	2065	
3476	0	2051	2083	2033	2048	
3477	0	2052	2083	2050	2027	
3478	0	2044	2066	2035	2015	
3479	0	2035	2050	2038	2014	
3480	0	2035	2014	2052	2041	
3481	0	2033	2013	2047	2043	
3482	0	2044	2036	2056	2055	
3483	0	2052	2054	2060	2062	
3484	0	2055	2053	2053	2056	
3485	0	2060	2058	2064	2051	
3486	0	2057	2057	2068	2047	
3487	0	2048	2046	2059	2035	
3488	0	2049	2040	2072	2043	
3489	0	2055	2044	2096	2037	
3490	0	2055	2039	2083	2052	
3491	0	2070	2053	2074	2054	
3492	0	2051	2043	2062	2063	
3493	0	2036	2036	2026	2078	
3494	0	2034	2038	2000	2057	
3495	0	2049	2049	1994	2070	
3496	0	2055	2056	2003	2052	
3497	0	2057	2051	2032	2061	
3498	0	2054	2049	2037	2039	
3499	0	2055	2052	2047	2051	
3500	0	2058	2050	2077	2040	
3501	0	2053	2044	2069	2060	
3502	0	2042	2031	2077	2065	
3503	0	2038	2041	2071	2058	
3504	0	2041	2031	2063	2044	
3505	0	2044	2038	2071	2038	
3506	0	2049	2049	2063	2046	
3507	0	2045	2045	2047	2053	
3508	0	2039	2039	2039	2050	
3509	0	2051	2065	2043	2049	
3510	0	2053	2064	2034	2029	
3511	0	2050	2061	2025	2035	
3512	0	2045	2059	2024	2010	
3513	0	2047	2061	2017	2031	
3514	0	2042	2050	2012	2053	
3515	0	2045	2049	2028	2041	
3516	0	2046	2049	2038	2026	
3517	0	2049	2044	2044	2053	
3518	0	2046	2034	2042	2067	
3519	0	2056	2056	2054	2039	
3520	0	2059	2069	2043	2019	
3521	0	2041	2042	2026	2041	
3522	0	2038	2037	2040	2060	
3523	0	2039	2035	2049	2049	
3524	0	2039	2030	2052	2070	
3525	0	2044	2031	2052	2060	
3526	0	2047	2037	2043	2072	
3527	0	2056	2058	2062	2049	
3528	0	2056	2044	2079	2040	
3529	0	2058	2051	2073	2028	
3530	0	2074	2098	2093	2021	
3531	0	2071	2099	2085	2036	
3532	0	2060	2077	2048	2058	
3533	0	2043	2040	2023	2044	
3534	0	2043	2038	2019	2063	
3535	0	2052	2048	2029	2046	
3536	0	2050	2053	2010	2051	
3537	0	2041	2054	1998	2040	
3538	0	2040	2038	1996	2056	
3539	0	2042	2040	2022	2050	
3540	0	2042	2034	2054	2060	
3541	0	2039	2038	2066	2039	
3542	0	2037	2048	2063	2045	
3543	0	2045	2049	2074	2030	
3544	0	2052	2042	2068	2039	
3545	0	2056	2041	2060	2038	
3546	0	2050	2022	2074	2061	
3547	0	2049	2017	2071	2044	
3548	0	2051	2045	2064	2061	
3549	0	2051	2070	2052	2033	
3550	0	2048	2074	2050	2077	
3551	0	2049	2065	2051	2056	
3552	0	2045	2037	2043	2057	
3553	0	2048	2041	2032	2044	
3554	0	2052	2061	2042	2063	
3555	0	2072	2072	2050	2030	
3556	0	2051	2042	2050	2048	
3557	0	2051	2047	2051	2036	
3558	0	2053	2048	2056	2037	
3559	0	2057	2050	2068	2023	
3560	0	2064	2063	2074	2039	
3561	0	2058	2055	2069	2046	
3562	0	2049	2052	2044	2048	
3563	0	2044	2051	2033	2064	
3564	0	2044	2042	2023	2035	
3565	0	2051	2052	2039	2031	
3566	0	2054	2051	2048	2028	
3567	0	2041	2023	2043	2050	
3568	0	2040	2034	2048	2049	
3569	0	2037	2030	2060	2046	
3570	0	2044	2034	2073	2077	
3571	0	2049	2042	2076	2096	
3572	0	2053	2070	2059	2086	
3573	0	2056	2060	2038	2064	
3574	0	2057	2041	2029	2057	
3575	0	2049	2043	2003	2065	
3576	0	2049	2059	2008	2021	
3577	0	2053	2082	2011	1983	
3578	0	2045	2071	2020	2002	
3579	0	2033	2064	2027	2046	
3580	0	2033	2057	2046	2038	
3581	0	2032	2015	2047	2076	
3582	0	2038	2019	2050	2085	
3583	0	2041	2039	2063	2062	
3584	0	2050	2045	2071	2048	
3585	0	2062	2060	2073	2022	
3586	0	2051	2060	2071	2035	
3587	0	2056	2068	2066	2061	
3588	0	2066	2050	2067	2038	
3589	0	2060	2035	2065	2022	
3590	0	2075	2096	2059	2014	
3591	0	2063	2077	2064	2042	
3592	0	2056	2033	2042	2048	
3593	0	2056	2040	2047	2051	
3594	0	2046	2039	2045	2055	
3595	0	2046	2038	2051	2048	
3596	0	2048	2039	2054	2040	
3597	0	2052	2040	2056	2026	
3598	0	2052	2049	2055	2026	
3599	0	2054	2052	2043	2038	
3600	0	2046	2037	2050	2056	
3601	0	2037	2035	2043	2070	
3602	0	2038	2038	2047	2070	
3603	0	2041	2044	2042	2046	
3604	0	2045	2062	2033	2040	
3605	0	2046	2059	2025	2040	
3606	0	2048	2051	2030	2068	
3607	0	2041	2052	2030	2074	
3608	0	2044	2039	2042	2067	
3609	0	2048	2043	2046	2013	
3610	0	2043	2048	2035	2016	
3611	0	2040	2034	2048	2030	
3612	0	2038	2026	2058	2062	
3613	0	2048	2045	2051	2080	
3614	0	2058	2070	2051	2035	
3615	0	2053	2067	2058	2030	
3616	0	2066	2064	2064	2035	
3617	0	2060	2033	2066	2082	
3618	0	2047	2029	2059	2049	
3619	0	2042	2034	2052	2069	
3620	0	2060	2048	2071	2033	
3621	0	2064	2062	2060	2048	
3622	0	2058	2066	2047	2047	
3623	0	2059	2072	2055	2050	
3624	0	2067	2089	2064	2031	
3625	0	2048	2065	2040	2037	
3626	0	2038	2056	2008	2032	
3627	0	2031	2044	2009	2068	
3628	0	2038	2041	2026	2046	
3629	0	2043	2037	2029	2051	
3630	0	2038	2024	2027	2041	
3631	0	2040	2035	2023	2047	
3632	0	2044	2052	2038	2061	
3633	0	2052	2049	2065	2028	
3634	0	2061	2050	2078	2026	
3635	0	2064	2059	2082	2048	
3636	0	2054	2047	2072	2073	
3637	0	2050	2040	2074	2056	
3638	0	2052	2052	2072	2049	
3639	0	2059	2048	2063	2046	
3640	0	2057	2051	2056	2058	
3641	0	2055	2063	2055	2042	
3642	0	2051	2063	2042	2050	
3643	0	2048	2055	2039	2041	
3644	0	2036	2041	2035	2065	
3645	0	2031	2037	2030	2055	
3646	0	2022	2032	2019	2053	
3647	0	2033	2033	2003	2042	
3648	0	2048	2054	2026	2038	
3649	0	2063	2063	2050	2045	
3650	0	2051	2060	2048	2048	
3651	0	2050	2059	2041	2082	
3652	0	2042	2034	2041	2057	
3653	0	2042	2036	2043	2052	
3654	0	2049	2054	2062	2026	
3655	0	2052	2044	2062	2034	
3656	0	2058	2054	2071	2019	
3657	0	2062	2062	2059	2053	
3658	0	2060	2057	2052	2034	
3659	0	2056	2045	2053	2048	
3660	0	2056	2032	2060	2048	
3661	0	2051	2027	2054	2061	
3662	0	2046	2030	2046	2049	
3663	0	2048	2051	2040	2055	
3664	0	2040	2049	2042	2037	
3665	0	2039	2048	2051	2035	
3666	0	2039	2062	2049	2012	
3667	0	2049	2056	2046	2034	
3668	0	2044	2058	2035	2051	
3669	0	2042	2050	2040	2061	
3670	0	2040	2046	2040	2061	
3671	0	2042	2053	2048	2055	
3672	0	2047	2043	2050	2068	
3673	0	2057	2043	2071	2043	
3674	0	2067	2068	2081	2027	
3675	0	2066	2073	2082	2011	
3676	0	2065	2075	2058	2073	
3677	0	2051	2027	2035	2066	
3678	0	2046	2024	2022	2046	
3679	0	2048	2035	2029	2029	
3680	0	2048	2062	2020	2042	
3681	0	2049	2064	2022	2044	
3682	0	2045	2048	2031	2065	
3683	0	2048	2051	2043	2046	
3684	0	2042	2048	2050	2057	
3685	0	2042	2055	2053	2063	
3686	0	2041	2046	2059	2049	
3687	0	2043	2033	2063	2062	
3688	0	2051	2039	2073	2060	
3689	0	2063	2052	2068	2049	
3690	0	2061	2065	2059	2036	
3691	0	2062	2057	2058	2018	
3692	0	2063	2066	2059	2022	
3693	0	2064	2051	2060	2030	
3694	0	2043	2026	2044	2049	
3695	0	2027	2012	2039	2054	
3696	0	2014	2008	2016	2058	
3697	0	2020	2031	2021	2071	
3698	0	2036	2042	2033	2079	
3699	0	2044	2020	2034	2072	
3700	0	2046	2050	2029	2086	
3701	0	2051	2084	2025	2025	
3702	0	2061	2097	2047	2035	
3703	0	2056	2079	2047	2031	
3704	0	2072	2064	2064	2035	
3705	0	2076	2076	2070	2058	
3706	0	2077	2082	2078	2015	
3707	0	2065	2046	2082	2012	
3708	0	2052	2040	2074	2022	
3709	0	2050	2044	2057	2036	
3710	0	2051	2048	2040	2043	
3711	0	2039	2017	2041	2042	
3712	0	2033	2014	2032	2055	
3713	0	2041	2037	2038	2060	
3714	0	2054	2049	2039	2048	
3715	0	2056	2066	2044	2031	
3716	0	2053	2061	2037	2046	
3717	0	2049	2035	2048	2062	
3718	0	2048	2038	2033	2067	
3719	0	2055	2043	2047	2046	
3720	0	2058	2036	2057	2038	
3721	0	2049	2042	2061	2048	
3722	0	2046	2042	2064	2105	
3723	0	2035	2031	2056	2074	
3724	0	2029	2026	2062	2060	
3725	0	2037	2038	2054	2057	
3726	0	2041	2058	2038	2038	
3727	0	2045	2081	2020	2009	
3728	0	2054	2086	2023	2010	
3729	0	2054	2048	2024	2069	
3730	0	2056	2062	2040	2050	
3731	0	2066	2079	2044	2016	
3732	0	2065	2073	2055	2014	
3733	0	2056	2070	2052	2035	
3734	0	2050	2046	2066	2083	
3735	0	2049	2031	2054	2038	
3736	0	2041	2019	2059	2039	
3737	0	2039	2029	2058	2071	
3738	0	2035	2032	2047	2071	
3739	0	2026	2024	2047	2055	
3740	0	2037	2015	2042	2082	
3741	0	2056	2044	2043	2078	
3742	0	2071	2084	2054	2056	
3743	0	2075	2088	2062	2054	
3744	0	2070	2062	2050	2041	
3745	0	2045	2025	2055	2038	
3746	0	2038	2008	2052	2048	
3747	0	2046	2026	2060	2044	
3748	0	2060	2057	2051	2034	
3749	0	2063	2077	2034	2031	
3750	0	2058	2102	2015	2027	
3751	0	2053	2099	2001	2033	
3752	0	2047	2087	2014	2043	
3753	0	2034	2054	2007	2053	
3754	0	2023	2018	2021	2058	
3755	0	2029	2032	2040	2044	
3756	0	2031	2028	2044	2049	
3757	0	2031	2012	2057	2052	
3758	0	2039	2008	2062	2050	
3759	0	2046	2020	2077	2051	
3760	0	2054	2048	2076	2046	
3761	0	2064	2067	2078	2031	
3762	0	2090	2096	2074	2029	
3763	0	2067	2087	2070	2025	
3764	0	2059	2065	2057	2030	
3765	0	2043	2051	2060	2044	
3766	0	2034	2041	2049	2057	
3767	0	2030	2036	2040	2053	
3768	0	2041	2039	2054	2056	
3769	0	2049	2034	2063	2063	
3770	0	2033	2026	2045	2056	
3771	0	2046	2023	2037	2056	
3772	0	2053	2024	2051	2037	
3773	0	2066	2068	2050	2036	
3774	0	2071	2078	2059	2018	
3775	0	2057	2058	2048	2039	
3776	0	2060	2066	2045	2045	
3777	0	2072	2083	2036	2064	
3778	0	2044	2046	2019	2076	
3779	0	2031	2017	2013	2095	
3780	0	2034	2024	2034	2070	
3781	0	2052	2060	2051	2011	
3782	0	2065	2086	2050	2019	
3783	0	2059	2055	2052	2064	
3784	0	2045	2013	2044	2050	
3785	0	2052	2031	2066	2023	
3786	0	2052	2050	2059	2037	
3787	0	2049	2055	2054	2064	
3788	0	2040	2046	2046	2070	
3789	0	2030	2045	2034	2049	
3790	0	2031	2049	2033	2048	
3791	0	2038	2043	2038	2047	
3792	0	2040	2039	2045	2051	
3793	0	2042	2038	2049	2050	
3794	0	2047	2042	2049	2046	
3795	0	2050	2040	2050	2050	
3796	0	2047	2043	2052	2046	
3797	0	2055	2054	2043	2033	
3798	0	2054	2060	2041	2035	
3799	0	2050	2055	2031	2044	
3800	0	2049	2044	2033	2041	
3801	0	2046	2035	2024	2052	
3802	0	2042	2029	2042	2066	
3803	0	2044	2026	2055	2062	
3804	0	2047	2036	2063	2048	
3805	0	2063	2065	2074	2033	
3806	0	2079	2083	2089	2040	
3807	0	2075	2082	2079	2048	
3808	0	2066	2069	2079	2063	
3809	0	2056	2055	2066	2067	
3810	0	2031	2027	2038	2056	
3811	0	2014	2026	2025	2039	
3812	0	2034	2061	2038	2026	
3813	0	2067	2066	2069	2065	
3814	0	2078	2057	2078	2069	
3815	0	2069	2023	2096	2034	
3816	0	2062	2027	2079	2033	
3817	0	2061	2060	2054	2028	
3818	0	2058	2061	2020	2036	
3819	0	2051	2061	1999	2051	
3820	0	2058	2066	2006	2049	
3821	0	2065	2078	1997	2029	
3822	0	2045	2075	1972	2027	
3823	0	2011	2058	1950	2036	
3824	0	2003	2048	1981	2038	
3825	0	2006	2034	2008	2026	
3826	0	2018	2030	2048	2021	
3827	0	2035	2031	2059	2040	
3828	0	2027	2005	2078	2068	
3829	0	2037	1993	2080	2082	
3830	0	2032	1979	2085	2078	
3831	0	2038	1982	2080	2068	
3832	0	2072	2072	2086	2073	
3833	0	2088	2128	2075	2061	
3834	0	2082	2120	2071	2054	
3835	0	2077	2101	2066	2053	
3836	0	2064	2062	2057	2054	
3837	0	2061	2044	2054	2048	
3838	0	2061	2063	2043	2028	
3839	0	2056	2068	2048	2013	
3840	0	2045	2048	2029	2023	
3841	0	2032	2021	2030	2071	
3842	0	2041	2032	2029	2045	
3843	0	2034	2013	2028	2067	
3844	0	2044	2040	2029	2029	
3845	0	2046	2051	2042	2019	
3846	0	2040	2033	2050	2053	
3847	0	2055	2044	2060	2073	
3848	0	2066	2059	2083	2085	
3849	0	2069	2051	2086	2080	
3850	0	2054	2038	2082	2061	
3851	0	2045	2026	2070	2058	
3852	0	2036	2010	2061	2056	
3853	0	2043	2044	2048	2036	
3854	0	2058	2081	2041	2071	
3855	0	2087	2124	2048	2026	
3856	0	2081	2106	2040	2018	
3857	0	2059	2076	2022	2020	
3858	0	2047	2076	2020	2036	
3859	0	2042	2044	2031	2040	
3860	0	2040	2007	2033	2061	
3861	0	2019	1990	2031	2089	
3862	0	2025	1990	2039	2077	
3863	0	2031	2014	2051	2053	
3864	0	2037	2028	2044	2017	
3865	0	2054	2069	2044	2025	
3866	0	2059	2070	2046	2055	
3867	0	2047	2045	2040	2043	
3868	0	2040	2049	2041	2025	
3869	0	2035	2040	2048	2043	
3870	0	2047	2055	2060	2042	
3871	0	2056	2092	2061	2046	
3872	0	2062	2095	2065	2043	
3873	0	2073	2082	2076	2037	
3874	0	2076	2074	2080	2029	
3875	0	2071	2052	2075	2058	
3876	0	2053	2047	2060	2063	
3877	0	2050	2035	2054	2065	
3878	0	2043	2039	2043	2072	
3879	0	2041	2036	2037	2051	
3880	0	2045	2035	2045	2056	
3881	0	2049	2041	2046	2036	
3882	0	2047	2042	2053	2050	
3883	0	2041	2041	2047	2035	
3884	0	2051	2056	2045	2043	
3885	0	2057	2053	2050	2035	
3886	0	2042	2044	2049	2047	
3887	0	2036	2036	2036	2046	
3888	0	2033	2050	2029	2045	
3889	0	2035	2063	2025	2055	
3890	0	2046	2064	2029	2042	
3891	0	2053	2063	2037	2058	
3892	0	2054	2039	2041	2052	
3893	0	2038	2000	2034	2052	
3894	0	2050	2023	2033	2026	
3895	0	2051	2033	2046	2030	
3896	0	2053	2043	2057	2050	
3897	0	2050	2037	2067	2038	
3898	0	2059	2054	2062	2046	
3899	0	2059	2061	2049	2034	
3900	0	2046	2040	2041	2067	
3901	0	2052	2063	2038	2055	
3902	0	2066	2083	2032	2045	
3903	0	2064	2071	2036	2048	
3904	0	2057	2065	2047	2040	
3905	0	2053	2047	2045	2045	
3906	0	2039	2040	2045	2049	
3907	0	2042	2042	2053	2059	
3908	0	2035	2045	2055	2045	
3909	0	2015	2041	2049	2062	
3910	0	2020	2038	2040	2048	
3911	0	2032	2032	2058	2068	
3912	0	2042	2047	2067	2050	
3913	0	2042	2045	2055	2052	
3914	0	2047	2036	2056	2068	
3915	0	2052	2043	2054	2059	
3916	0	2061	2053	2048	2041	
3917	0	2063	2055	2059	2047	
3918	0	2065	2065	2058	2035	
3919	0	2062	2058	2047	2047	
3920	0	2051	2042	2043	2028	
3921	0	2056	2056	2036	2042	
3922	0	2058	2052	2041	2034	
3923	0	2054	2055	2042	2041	
3924	0	2042	2045	2034	2044	
3925	0	2039	2041	2030	2042	
3926	0	2044	2039	2042	2066	
3927	0	2059	2040	2064	2034	
3928	0	2060	2052	2074	2031	
3929	0	2045	2053	2067	2028	
3930	0	2035	2035	2051	2035	
3931	0	2036	2037	2058	2018	
3932	0	2038	2019	2060	2054	
3933	0	2051	2046	2060	2056	
3934	0	2063	2074	2048	2041	
3935	0	2065	2081	2028	2070	
3936	0	2065	2108	2021	2053	
3937	0	2056	2071	2039	2063	
3938	0	2069	2054	2049	2066	
3939	0	2062	2057	2038	2050	
3940	0	2034	2029	2033	2069	
3941	0	2048	2042	2044	2045	
3942	0	2047	2028	2052	2049	
3943	0	2034	1976	2058	2052	
3944	0	2051	2043	2061	2074	
3945	0	2068	2076	2063	2047	
3946	0	2062	2086	2052	2053	
3947	0	2048	2081	2038	2024	
3948	0	2039	2055	2042	2031	
3949	0	2033	2057	2036	2024	
3950	0	2033	2049	2012	2068	
3951	0	2049	2034	2017	2053	
3952	0	2052	2027	2038	2061	
3953	0	2050	2048	2061	2022	
3954	0	2046	2052	2070	2004	
3955	0	2052	2075	2073	2035	
3956	0	2064	2075	2066	2055	
3957	0	2053	2028	2052	2114	
3958	0	2053	2033	2041	2068	
3959	0	2061	2064	2043	2051	
3960	0	2066	2074	2051	2030	
3961	0	2066	2076	2056	2036	
3962	0	2063	2065	2064	2031	
3963	0	2058	2060	2062	2042	
3964	0	2044	2038	2058	2040	
3965	0	2034	2028	2044	2052	
3966	0	2028	2027	2030	2048	
3967	0	2029	2025	2019	2045	
3968	0	2028	2031	2028	2053	
3969	0	2027	2035	2029	2049	
3970	0	2032	2037	2030	2051	
3971	0	2039	2046	2045	2040	
3972	0	2042	2046	2048	2055	
3973	0	2041	2042	2042	2047	
3974	0	2048	2051	2035	2052	
3975	0	2056	2058	2043	2050	
3976	0	2064	2053	2048	2066	
3977	0	2060	2029	2063	2046	
3978	0	2065	2016	2072	2046	
3979	0	2063	2058	2074	2021	
3980	0	2072	2080	2082	2033	
3981	0	2066	2065	2081	2053	
3982	0	2053	2051	2076	2042	
3983	0	2048	2040	2055	2016	
3984	0	2035	2022	2040	2037	
3985	0	2018	2021	2029	2030	
3986	0	2028	2045	2020	2060	
3987	0	2038	2067	2022	2076	
3988	0	2044	2065	2026	2072	
3989	0	2030	2036	2042	2044	
3990	0	2035	2022	2044	2073	
3991	0	2045	2053	2021	2059	
3992	0	2053	2061	2026	2018	
3993	0	2050	2045	2027	2022	
3994	0	2069	2058	2044	2030	
3995	0	2066	2061	2054	2084	
3996	0	2062	2062	2042	2062	
3997	0	2067	2062	2052	2062	
3998	0	2064	2062	2041	2062	
3999	0	2058	2062	2037	2076	
4000	0	2043	2054	2057	2046	
4001	0	2051	2066	2066	2044	
4002	0	2063	2072	2056	2026	
4003	0	2052	2050	2062	2037	
4004	0	2040	2033	2065	2032	
4005	0	2041	2045	2056	2044	
4006	0	2040	2041	2047	2032	
4007	0	2043	2030	2054	2038	
4008	0	2042	2022	2043	2026	
4009	0	2042	2039	2036	2053	
4010	0	2054	2066	2055	2044	
4011	0	2046	2050	2055	2066	
4012	0	2036	2026	2039	2054	
4013	0	2036	2036	2040	2082	
4014	0	2059	2052	2060	2089	
4015	0	2072	2054	2076	2041	
4016	0	2061	2050	2064	2001	
4017	0	2067	2064	2050	2033	
4018	0	2057	2061	2058	2042	
4019	0	2032	2031	2054	2043	
4020	0	2019	2010	2040	2062	
4021	0	2033	2044	2029	2056	
4022	0	2026	2040	2030	2068	
4023	0	2056	2100	2041	2066	
4024	0	2078	2129	2046	2046	
4025	0	2067	2103	2045	2026	
4026	0	2057	2067	2052	2021	
4027	0	2044	2012	2052	2029	
4028	0	2039	2008	2044	2043	
4029	0	2029	1997	2048	2092	
4030	0	2026	2000	2042	2107	
4031	0	2043	2035	2054	2065	
4032	0	2054	2007	2053	2058	
4033	0	2065	2038	2070	2025	
4034	0	2105	2120	2083	1991	
4035	0	2097	2092	2070	1999	
4036	0	2066	2064	2058	2025	
4037	0	2054	2061	2047	2050	
4038	0	2044	2073	2046	2057	
4039	0	2038	2071	2046	2071	
4040	0	2038	2044	2048	2071	
4041	0	2043	2033	2050	2054	
4042	0	2047	2043	2049	2049	
4043	0	2047	2046	2067	2045	
4044	0	2039	2044	2056	2041	
4045	0	2043	2053	2055	2036	
4046	0	2051	2060	2040	2031	
4047	0	2045	2070	2044	2029	
4048	0	2040	2024	2017	2049	
4049	0	2029	1998	2018	2046	
4050	0	2035	2013	2001	2052	
4051	0	2031	2024	2005	2071	
4052	0	2034	2045	2008	2065	
4053	0	2036	2045	2037	2075	
4054	0	2032	2042	2044	2077	
4055	0	2043	2048	2054	2087	
4056	0	2070	2071	2058	2080	
4057	0	2073	2075	2072	2043	
4058	0	2072	2066	2080	2035	
4059	0	2068	2062	2076	2037	
4060	0	2067	2071	2077	2010	
4061	0	2056	2069	2069	2016	
4062	0	2032	2049	2052	2063	
4063	0	2045	2045	2048	2078	
4064	0	2054	2043	2054	2033	
4065	0	2059	2036	2051	2011	
4066	0	2070	2062	2063	2001	
4067	0	2058	2064	2052	2017	
4068	0	2038	2039	2045	2055	
4069	0	2022	2009	2027	2093	
4070	0	2019	2004	2038	2062	
4071	0	2029	2023	2037	2041	
4072	0	2057	2076	2055	2023	
4073	0	2069	2093	2069	2003	
4074	0	2066	2088	2082	2008	
4075	0	2060	2072	2067	2039	
4076	0	2050	2013	2055	2092	
4077	0	2047	2003	2039	2112	
4078	0	2052	2042	2010	2098	
4079	0	2045	2054	1981	2112	
4080	0	2038	2021	2002	2128	
4081	0	2039	2023	1998	2092	
4082	0	2045	2051	2021	2040	
4083	0	2044	2067	2028	2018	
4084	0	2040	2073	2051	2034	
4085	0	2034	2066	2053	2039	
4086	0	2034	2050	2070	2020	
4087	0	2038	2044	2073	2023	
4088	0	2047	2045	2070	2034	
4089	0	2045	2034	2063	2037	
4090	0	2049	2027	2065	2043	
4091	0	2054	2040	2065	2044	
4092	0	2060	2071	2057	2040	
4093	0	2067	2100	2067	2044	
4094	0	2067	2071	2060	2065	
4095	0	2048	2019	2060	2081	
4096	0	2056	2014	2047	2035	
4097	0	2075	2059	2063	2002	
4098	0	2075	2077	2054	2004	
4099	0	2068	2076	2060	1993	
4100	0	2033	2011	2037	2032	
4101	0	1993	1948	2014	2100	
4102	0	1968	1926	2012	2154	
4103	0	2023	2026	2021	2095	
4104	0	2094	2149	2047	2004	
4105	0	2105	2138	2040	1994	
4106	0	2073	2084	2046	2025	
4107	0	2052	2061	2041	2047	
4108	0	2044	2080	2045	2058	
4109	0	2076	2101	2069	2024	
4110	0	2073	2057	2064	2044	
4111	0	2070	2052	2058	2044	
4112	0	2062	2054	2055	2044	
4113	0	2049	2041	2048	2061	
4114	0	2053	2030	2059	2049	
4115	0	2058	2034	2065	2048	
4116	0	2052	2051	2071	2045	
4117	0	2045	2069	2057	2042	
4118	0	2038	2071	2049	2064	
4119	0	2037	2041	2035	2044	
4120	0	2031	2038	2016	2048	
4121	0	2034	2032	2016	2051	
4122	0	2037	2034	2013	2041	
4123	0	2041	2034	2028	2055	
4124	0	2041	2037	2023	2057	
4125	0	2043	2042	2035	2049	
4126	0	2045	2037	2047	2070	
4127	0	2051	2036	2062	2070	
4128	0	2049	2039	2051	2053	
4129	0	2043	2050	2048	2048	
4130	0	2045	2051	2042	2032	
4131	0	2047	2052	2057	2031	
4132	0	2051	2052	2066	2038	
4133	0	2043	2040	2070	2066	
4134	0	2059	2052	2074	2049	
4135	0	2070	2063	2077	2044	
4136	0	2067	2058	2075	2044	
4137	0	2054	2043	2086	2046	
4138	0	2055	2031	2085	2032	
4139	0	2051	2032	2075	2031	
4140	0	2047	2030	2044	2046	
4141	0	2034	2031	2006	2055	
4142	0	2033	2045	1984	2049	
4143	0	2041	2060	1986	2060	
4144	0	2046	2056	2006	2082	
4145	0	2039	2044	2021	2086	
4146	0	2038	2063	2013	2080	
4147	0	2045	2073	2033	2046	
4148	0	2032	2020	2045	2062	
4149	0	2039	1999	2064	2051	
4150	0	2063	2071	2077	2023	
4151	0	2066	2099	2080	2003	
4152	0	2062	2080	2067	2016	
4153	0	2061	2063	2067	2056	
